ch1_zc,ch1_ssc,ch1_mav,ch1_wl,ch1_rms,ch1_var,ch2_zc,ch2_ssc,ch2_mav,ch2_wl,ch2_rms,ch2_var,ch3_zc,ch3_ssc,ch3_mav,ch3_wl,ch3_rms,ch3_var,label
77,172,5.86e-4,0.133736,7.160000000000001e-4,1e-6,54,139,9.220000000000001e-4,0.148337,0.001142,1e-6,49,174,6.77e-4,0.142367,8.05e-4,1e-6,0
23,109,0.002928,0.237891,0.003585,1.3000000000000001e-5,24,63,0.006697,0.600057,0.008561,7.3e-5,32,76,0.007203,0.7048260000000001,0.009159,8.4e-5,4
34,131,0.0015970000000000001,0.185343,0.001918,4e-6,50,148,9.85e-4,0.138784,0.0012109999999999998,1e-6,55,165,0.001144,0.183135,0.001424,2e-6,0
75,183,5.56e-4,0.14541600000000002,6.74e-4,0,65,165,6.730000000000001e-4,0.13493,9.019999999999999e-4,1e-6,78,174,5.6e-4,0.133578,6.99e-4,0,0
33,92,0.0017519999999999999,0.175109,0.002066,4e-6,53,165,0.001186,0.15399000000000002,0.001588,3e-6,46,169,9.119999999999999e-4,0.136165,0.001193,1e-6,0
35,160,0.001251,0.160064,0.0016010000000000002,3e-6,34,116,0.003517,0.228803,0.005187,2.7000000000000002e-5,30,132,0.0016460000000000001,0.178954,0.002025,4e-6,0
30,111,0.003127,0.26811,0.004036,1.6e-5,26,70,0.008454999999999999,0.71426,0.010312,1.06e-4,28,73,0.009034,0.772145,0.011321,1.28e-4,9
86,179,5.44e-4,0.125374,6.84e-4,0,72,164,6.519999999999999e-4,0.13716199999999998,8.8e-4,1e-6,69,179,6.44e-4,0.126648,7.87e-4,1e-6,0
16,87,0.007988,0.521123,0.010111,1.02e-4,26,57,0.031982,2.915778,0.041839,0.00175,21,62,0.023867,1.550074,0.030633999999999998,9.369999999999999e-4,4
30,104,0.00463,0.410483,0.006265,3.9e-5,31,81,0.005577,0.564278,0.006883,4.7e-5,28,105,0.003795,0.354604,0.004753,2.3e-5,5
21,122,0.0030960000000000002,0.226623,0.0037200000000000002,1.4000000000000001e-5,29,79,0.004304,0.369741,0.005985,3.6e-5,23,72,0.006556,0.499338,0.00863,7.4e-5,4
24,74,0.006396,0.49381,0.008014,6.4e-5,36,90,0.005503,0.611066,0.006825,4.7e-5,27,69,0.018254,1.551644,0.023078,5.32e-4,7
27,91,0.003725,0.318143,0.004874,2.4e-5,33,83,0.00572,0.5352779999999999,0.007201999999999999,5.2000000000000004e-5,20,78,0.008458,0.633458,0.010043,1.01e-4,9
64,172,6.360000000000001e-4,0.131129,7.92e-4,1e-6,40,150,8.640000000000001e-4,0.144599,0.0010400000000000001,1e-6,126,185,3.48e-4,0.13475,4.4699999999999997e-4,0,0
71,196,5.28e-4,0.124895,6.41e-4,0,81,179,5.21e-4,0.122896,6.71e-4,0,72,177,6.04e-4,0.145709,7.17e-4,1e-6,0
23,100,0.0036880000000000003,0.30744699999999997,0.0047810000000000005,2.3e-5,21,75,0.006489,0.47693800000000003,0.007964,6.3e-5,29,107,0.0034659999999999995,0.31609499999999996,0.004636,2.1e-5,3
79,178,4.46e-4,0.109874,5.73e-4,0,53,149,0.001075,0.17211500000000002,0.001283,2e-6,73,184,6.03e-4,0.142206,7.79e-4,1e-6,0
42,117,0.001834,0.233444,0.002235,5e-6,30,94,0.003851,0.358792,0.005012,2.5e-5,25,95,0.0074670000000000005,0.606492,0.009826,9.7e-5,8
37,117,0.0023239999999999997,0.252675,0.002817,8e-6,28,69,0.007712,0.737015,0.009828,9.7e-5,31,84,0.007193000000000001,0.600288,0.009382,8.8e-5,9
62,182,7.93e-4,0.138996,0.001074,1e-6,38,124,0.001358,0.173241,0.001582,3e-6,82,175,5.32e-4,0.134379,6.63e-4,0,0
23,98,0.003092,0.268631,0.003932,1.4999999999999999e-5,27,96,0.005102000000000001,0.502366,0.006559000000000001,4.3e-5,27,67,0.012468,1.0636450000000002,0.015563999999999998,2.42e-4,9
26,107,0.0036200000000000004,0.310109,0.0047799999999999995,2.3e-5,21,140,0.002716,0.228346,0.0035549999999999996,1.3000000000000001e-5,26,122,0.0036149999999999997,0.33214699999999997,0.004448,2e-5,8
36,116,0.002905,0.26524200000000003,0.003825,1.4999999999999999e-5,29,81,0.003954999999999999,0.35756,0.004897,2.4e-5,30,104,0.004292,0.416465,0.005188,2.7000000000000002e-5,9
35,138,0.0014759999999999999,0.18225999999999998,0.001759,3e-6,44,148,0.001051,0.14146199999999998,0.001265,2e-6,48,158,0.001219,0.181687,0.001515,2e-6,0
34,128,0.00196,0.217,0.0024289999999999997,6e-6,24,122,0.002585,0.236551,0.0032840000000000005,1.1e-5,28,79,0.005422,0.492568,0.006743000000000001,4.5e-5,8
98,185,4.63e-4,0.138004,5.809999999999999e-4,0,64,173,6.34e-4,0.13526300000000002,7.81e-4,1e-6,131,183,2.97e-4,0.11706199999999999,3.7e-4,0,0
27,107,0.002333,0.25355900000000003,0.0029809999999999997,9e-6,24,100,0.0032329999999999998,0.278174,0.004051,1.6e-5,28,66,0.007051999999999999,0.588896,0.008944,8e-5,3
33,114,0.003532,0.352534,0.004468,2e-5,23,62,0.009788,0.726333,0.011539,1.33e-4,35,96,0.004453,0.433913,0.0057399999999999994,3.3e-5,6
81,177,5.4e-4,0.13431500000000002,6.83e-4,0,89,176,4.25e-4,0.12168399999999999,5.47e-4,0,109,185,3.6e-4,0.12209500000000001,4.4800000000000005e-4,0,0
23,109,0.002502,0.21035399999999999,0.0030510000000000003,9e-6,28,65,0.009022,0.685991,0.011686,1.36e-4,27,135,0.0038060000000000004,0.302332,0.004881,2.4e-5,5
18,45,0.057354999999999996,3.49531,0.090495,0.008189,21,59,0.069297,3.617442,0.11587,0.013425999999999999,16,58,0.051630999999999996,3.7594529999999997,0.064734,0.004188,1
22,101,0.003639,0.319037,0.00458,2.1e-5,26,87,0.005303,0.48523999999999995,0.006396,4.1e-5,24,80,0.007520000000000001,0.645702,0.00907,8.2e-5,3
51,133,0.001353,0.20791199999999999,0.0017010000000000003,3e-6,25,132,0.0027719999999999997,0.220815,0.0035299999999999997,1.2e-5,31,93,0.004045,0.373268,0.005576,3.1e-5,6
60,171,6.7e-4,0.142977,8.02e-4,1e-6,50,158,7.58e-4,0.12873800000000002,9.89e-4,1e-6,137,183,3.34e-4,0.133417,4.1600000000000003e-4,0,0
86,172,5.84e-4,0.143907,7.36e-4,1e-6,69,180,5.73e-4,0.124269,7.68e-4,1e-6,55,153,8.699999999999999e-4,0.147263,0.001115,1e-6,0
27,96,0.003396,0.26511799999999996,0.004147,1.7e-5,26,126,0.0027300000000000002,0.25866100000000003,0.0041600000000000005,1.7e-5,17,107,0.007106,0.441367,0.01029,1.06e-4,4
28,117,0.002573,0.25609,0.003199,1e-5,27,96,0.006794,0.6558350000000001,0.008583,7.4e-5,26,77,0.009564,0.8520909999999999,0.011902,1.4199999999999998e-4,9
34,104,0.003333,0.347524,0.0042380000000000004,1.8e-5,30,80,0.009424,0.762113,0.012171,1.48e-4,23,68,0.014313999999999999,1.056833,0.017518000000000002,3.07e-4,4
101,201,3.01e-4,0.101453,3.8700000000000003e-4,0,91,182,4.14e-4,0.11408900000000001,5.19e-4,0,68,177,5.73e-4,0.133621,7.030000000000001e-4,0,0
25,90,0.003922999999999999,0.33153299999999997,0.004659,2.2e-5,26,101,0.00519,0.412691,0.006609,4.4e-5,23,71,0.010754000000000001,0.876074,0.013092,1.71e-4,4
93,181,3.43e-4,0.098718,4.2699999999999997e-4,0,43,145,0.001038,0.14819000000000002,0.001325,2e-6,85,167,4.6100000000000004e-4,0.12313699999999998,5.690000000000001e-4,0,0
59,122,0.004848,0.475768,0.008785,7.7e-5,47,95,0.01659,1.2221090000000001,0.026389999999999997,6.96e-4,54,119,0.006345,0.581348,0.010098000000000001,1.02e-4,0
29,107,0.0038090000000000003,0.33510500000000004,0.004808,2.3e-5,28,97,0.006058,0.570112,0.007273000000000001,5.3e-5,22,71,0.007888,0.6447930000000001,0.009932999999999999,9.9e-5,4
30,100,0.002704,0.245011,0.003403,1.2e-5,22,98,0.004146,0.32740199999999997,0.005442,2.9999999999999997e-5,39,130,0.002402,0.272052,0.003041,9e-6,8
24,79,0.008548,0.515436,0.013125,1.72e-4,30,55,0.01241,0.913125,0.017508000000000003,3.06e-4,27,90,0.006234,0.5441819999999999,0.007958,6.3e-5,3
37,131,0.001697,0.195964,0.0021850000000000003,5e-6,31,91,0.004753,0.43095,0.006209,3.9e-5,19,86,0.007606,0.537878,0.010077,1.01e-4,5
25,99,0.007018000000000001,0.51862,0.009551,9.1e-5,29,80,0.009788,0.866497,0.012655,1.6e-4,22,83,0.014695,1.052074,0.018149000000000002,3.2900000000000003e-4,4
129,191,2.61e-4,0.100994,3.28e-4,0,103,180,4.0199999999999996e-4,0.130659,4.940000000000001e-4,0,115,198,3.65e-4,0.13561099999999998,4.5099999999999996e-4,0,0
31,94,0.01404,0.8204670000000001,0.021172,4.4800000000000005e-4,27,85,0.020184999999999998,1.352416,0.029861000000000002,8.89e-4,29,78,0.017800999999999997,1.617551,0.026086,6.799999999999999e-4,0
44,146,0.001233,0.166122,0.001539,2e-6,36,114,0.001741,0.19420199999999999,0.002136,5e-6,47,152,0.001254,0.17858800000000002,0.001557,2e-6,0
24,55,0.011722,0.802087,0.015016,2.25e-4,31,54,0.025736000000000002,2.257625,0.033155000000000004,0.001099,23,70,0.020838,1.813973,0.025216,6.28e-4,9
29,124,0.002269,0.259265,0.003025,9e-6,28,82,0.008511,0.775928,0.011018,1.21e-4,32,82,0.006886,0.6379630000000001,0.008809,7.8e-5,9
28,68,0.009678,0.8444309999999999,0.012597,1.5900000000000002e-4,26,70,0.008187,0.773594,0.009942,9.9e-5,21,63,0.011779000000000001,0.907327,0.014533,2.1099999999999998e-4,0
21,128,0.002523,0.23861100000000002,0.003218,1e-5,46,131,0.001626,0.20647800000000002,0.0020859999999999997,4e-6,27,115,0.0025239999999999998,0.27436900000000003,0.003159,1e-5,6
21,108,0.002955,0.273793,0.004039,1.6e-5,32,58,0.008032,0.78403,0.009757,9.499999999999999e-5,24,94,0.005057,0.441695,0.006437999999999999,4.1e-5,2
75,182,6.27e-4,0.1392,8.560000000000001e-4,1e-6,84,190,4.6399999999999995e-4,0.116599,6.03e-4,0,87,164,5.44e-4,0.13743,6.69e-4,0,0
23,74,0.004393,0.321856,0.005312,2.8000000000000003e-5,19,82,0.0077280000000000005,0.5279,0.010555,1.1100000000000001e-4,27,106,0.005051,0.392997,0.006948,4.8e-5,8
57,177,8.19e-4,0.147032,0.001042,1e-6,110,194,3.99e-4,0.131915,4.87e-4,0,113,185,4.6699999999999997e-4,0.137775,6.17e-4,0,0
26,80,0.0044329999999999994,0.383442,0.00518,2.7000000000000002e-5,18,78,0.0070810000000000005,0.530195,0.008834,7.8e-5,31,91,0.004058,0.39073599999999997,0.0050869999999999995,2.6000000000000002e-5,2
24,100,0.002757,0.26848299999999997,0.0034159999999999998,1.2e-5,37,93,0.002651,0.303523,0.003365,1.1e-5,33,70,0.006229,0.661139,0.007620999999999999,5.7999999999999994e-5,3
69,183,5.57e-4,0.129329,6.929999999999999e-4,0,82,184,4.969999999999999e-4,0.121848,6.15e-4,0,81,192,5.16e-4,0.137194,6.349999999999999e-4,0,0
24,86,0.006633,0.423558,0.009008,8.1e-5,29,56,0.008643999999999999,0.780396,0.010201,1.0400000000000001e-4,28,101,0.004313,0.400334,0.0054659999999999995,2.9999999999999997e-5,5
53,140,0.001836,0.172448,0.003039,9e-6,55,156,0.001076,0.16556400000000002,0.001399,2e-6,33,130,0.002607,0.25246799999999997,0.003261,1.1e-5,0
27,114,0.002977,0.29367,0.0038299999999999996,1.4999999999999999e-5,24,61,0.0077150000000000005,0.680615,0.009468,8.9e-5,32,89,0.006055,0.573383,0.008,6.4e-5,2
36,127,0.001835,0.209779,0.002391,6e-6,27,116,0.003244,0.28632399999999997,0.0044020000000000005,1.9e-5,25,93,0.004151,0.329658,0.004768,2.3e-5,2
74,169,6.48e-4,0.134743,8.05e-4,1e-6,64,175,6.360000000000001e-4,0.135741,7.830000000000001e-4,1e-6,86,173,5.66e-4,0.139721,7.059999999999999e-4,0,0
86,185,3.02e-4,0.090407,3.71e-4,0,57,156,6.66e-4,0.125855,8.089999999999999e-4,1e-6,95,163,3.84e-4,0.114174,4.7300000000000006e-4,0,0
52,174,9.09e-4,0.14441099999999998,0.001145,1e-6,64,177,6.18e-4,0.127059,7.740000000000001e-4,1e-6,126,196,3.08e-4,0.12736199999999998,3.8700000000000003e-4,0,0
74,167,4.55e-4,0.101365,5.769999999999999e-4,0,74,164,4.91e-4,0.12031800000000001,6.11e-4,0,59,154,7.68e-4,0.139442,9.710000000000001e-4,1e-6,0
24,114,0.0028309999999999997,0.23974,0.003679,1.4000000000000001e-5,32,102,0.003164,0.320592,0.003966,1.6e-5,27,96,0.004647999999999999,0.418418,0.005922,3.5e-5,5
45,160,8.439999999999999e-4,0.136212,0.001007,1e-6,38,132,0.001144,0.15700999999999998,0.0014320000000000001,2e-6,57,173,9.609999999999999e-4,0.15451099999999998,0.001209,1e-6,0
29,135,0.002095,0.21185500000000002,0.0025109999999999998,6e-6,22,84,0.006964,0.522813,0.008524,7.3e-5,25,99,0.005425999999999999,0.473728,0.0065450000000000005,4.3e-5,9
24,126,0.002939,0.254182,0.003766,1.4000000000000001e-5,29,100,0.002771,0.28015,0.0033640000000000002,1.1e-5,22,113,0.003793,0.354003,0.004915,2.4e-5,5
51,167,0.001036,0.16858900000000002,0.001366,2e-6,29,82,0.003927,0.310746,0.005212,2.7000000000000002e-5,28,93,0.005571,0.48460299999999995,0.007035,4.9e-5,3
47,178,7.79e-4,0.146059,9.400000000000001e-4,1e-6,38,118,0.0015019999999999999,0.189943,0.001873,4e-6,30,104,0.003498,0.29170799999999997,0.004557,2.1e-5,0
44,108,0.008933,0.8282379999999999,0.016308,2.64e-4,48,115,0.012496,1.50227,0.021695,4.71e-4,39,103,0.016991,1.597273,0.028327999999999996,8.02e-4,7
34,72,0.0035549999999999996,0.381191,0.004499,2e-5,32,83,0.005609,0.49723199999999995,0.007965,6.3e-5,29,68,0.008931,0.8955069999999999,0.010717,1.1499999999999999e-4,3
32,57,0.009006,0.881396,0.011061,1.22e-4,27,67,0.009566,0.81929,0.011572,1.33e-4,21,70,0.016398,1.205352,0.019577,3.83e-4,1
30,110,0.003341,0.280889,0.00435,1.9e-5,22,67,0.010093000000000001,0.811391,0.012477,1.55e-4,18,78,0.007751999999999999,0.502905,0.009553,9.1e-5,5
84,184,4.24e-4,0.112497,5.200000000000001e-4,0,43,148,9.74e-4,0.1703,0.001175,1e-6,93,192,5.690000000000001e-4,0.1532,7.24e-4,1e-6,0
22,63,0.009304999999999999,0.640342,0.012387,1.53e-4,19,61,0.031135000000000003,2.255758,0.038942000000000004,0.001516,29,75,0.020638,1.633167,0.028762,8.269999999999999e-4,9
160,199,2.48e-4,0.112793,3.09e-4,0,71,181,4.99e-4,0.118099,6.190000000000001e-4,0,92,183,4.96e-4,0.137794,6.63e-4,0,0
25,114,0.002858,0.24189499999999997,0.003729,1.4000000000000001e-5,26,101,0.0028079999999999997,0.268092,0.00358,1.3000000000000001e-5,22,97,0.004942,0.389971,0.0061,3.7e-5,2
70,154,5.94e-4,0.1231,7.36e-4,1e-6,72,168,5.549999999999999e-4,0.135157,6.900000000000001e-4,0,70,168,6.74e-4,0.145758,8.39e-4,1e-6,0
39,120,0.0023940000000000003,0.243209,0.0031780000000000003,1e-5,30,98,0.003111,0.299075,0.0038770000000000002,1.4999999999999999e-5,22,127,0.002866,0.269972,0.003711,1.4000000000000001e-5,8
78,179,7.13e-4,0.14491099999999998,9e-4,1e-6,81,183,6.2e-4,0.133948,7.95e-4,1e-6,80,191,5.57e-4,0.135713,7.019999999999999e-4,0,0
30,100,0.0030559999999999997,0.289588,0.0038380000000000003,1.4999999999999999e-5,29,84,0.0064659999999999995,0.6215390000000001,0.008169,6.7e-5,32,81,0.013817,1.2457479999999999,0.018223,3.32e-4,7
21,86,0.004340999999999999,0.336812,0.005324000000000001,2.8000000000000003e-5,23,76,0.00872,0.6746310000000001,0.011073000000000001,1.23e-4,27,74,0.011137000000000001,0.950176,0.014771000000000001,2.18e-4,7
24,65,0.005189,0.38862800000000003,0.006661,4.4e-5,28,79,0.004926,0.45049700000000004,0.006108,3.7e-5,36,103,0.003817,0.400008,0.005007999999999999,2.5e-5,2
15,119,0.003508,0.236136,0.004409000000000001,1.9e-5,26,69,0.005419,0.44299799999999995,0.0065829999999999994,4.3e-5,23,84,0.004839,0.428982,0.006132,3.8e-5,4
25,116,0.002359,0.205102,0.0031550000000000003,1e-5,22,113,0.0034460000000000003,0.274897,0.004481000000000001,2e-5,30,91,0.004188,0.370602,0.005058,2.5e-5,6
36,138,0.001286,0.166215,0.0016589999999999999,3e-6,34,136,0.002074,0.216998,0.002935,9e-6,31,74,0.006195,0.571839,0.007431,5.5e-5,3
90,190,4.07e-4,0.11599200000000001,4.89e-4,0,68,156,7.559999999999999e-4,0.160395,9.27e-4,1e-6,87,184,5.66e-4,0.146536,7.2e-4,1e-6,0
38,122,0.002241,0.204213,0.002911,8e-6,29,132,0.0016769999999999999,0.197775,0.002173,5e-6,31,100,0.0063490000000000005,0.541882,0.009209,8.499999999999999e-5,3
71,194,5.26e-4,0.125387,6.41e-4,0,79,176,5.09e-4,0.121432,6.61e-4,0,74,177,5.76e-4,0.13736099999999998,6.940000000000001e-4,0,0
39,148,0.0016989999999999998,0.171167,0.002338,5e-6,23,105,0.002936,0.279303,0.003539,1.2e-5,27,112,0.003547,0.323737,0.00469,2.2e-5,8
62,171,8.67e-4,0.16084,0.001092,1e-6,56,173,7.570000000000001e-4,0.141703,9.199999999999999e-4,1e-6,112,195,4.7400000000000003e-4,0.143872,6.219999999999999e-4,0,0
75,181,6.6e-4,0.143233,8.42e-4,1e-6,73,171,7.559999999999999e-4,0.145565,0.0010199999999999999,1e-6,60,172,8.8e-4,0.161947,0.001106,1e-6,0
37,138,0.002082,0.230465,0.0030670000000000003,9e-6,30,80,0.0048460000000000005,0.47473999999999994,0.0061259999999999995,3.7e-5,27,117,0.004193,0.36732600000000004,0.0052770000000000004,2.8000000000000003e-5,5
26,72,0.009109,0.61332,0.013293000000000001,1.76e-4,30,66,0.010284999999999999,1.059289,0.012740000000000001,1.6e-4,19,81,0.011343,0.8239780000000001,0.014062999999999999,1.98e-4,3
33,119,0.002297,0.284597,0.002897,8e-6,19,86,0.007306,0.571264,0.008937,8e-5,25,65,0.01045,0.7547699999999999,0.012999,1.69e-4,7
38,114,0.002171,0.21654600000000002,0.002802,8e-6,28,85,0.004588,0.43481499999999995,0.005678,3.2e-5,26,88,0.0058920000000000005,0.47962,0.007422,5.5e-5,5
50,147,0.0011,0.18073599999999998,0.001351,2e-6,26,97,0.003071,0.27610300000000004,0.004301,1.8e-5,30,130,0.0018559999999999998,0.21699200000000002,0.002363,6e-6,6
71,178,6.47e-4,0.144564,8.039999999999999e-4,1e-6,64,169,7.71e-4,0.142627,9.82e-4,1e-6,90,168,5.03e-4,0.137416,6.47e-4,0,0
32,119,0.002168,0.218651,0.002823,8e-6,27,94,0.004520000000000001,0.417494,0.0058850000000000005,3.5e-5,30,90,0.004829,0.46096400000000004,0.006013,3.6e-5,9
74,185,4.91e-4,0.127722,6.09e-4,0,81,164,5.639999999999999e-4,0.122304,7.54e-4,1e-6,84,175,4.65e-4,0.125986,5.89e-4,0,0
86,199,4.3099999999999996e-4,0.108295,5.38e-4,0,41,146,0.0012,0.165024,0.00143,2e-6,93,195,4.39e-4,0.129678,5.54e-4,0,0
125,199,2.5699999999999996e-4,0.099065,3.23e-4,0,121,185,3.02e-4,0.110796,3.71e-4,0,122,194,3.7400000000000004e-4,0.139464,4.5700000000000005e-4,0,0
47,152,0.001387,0.165027,0.001812,3e-6,77,170,7.32e-4,0.13235999999999998,9.95e-4,1e-6,52,178,8.11e-4,0.144175,0.001007,1e-6,0
26,67,0.008711,0.642245,0.011340000000000001,1.29e-4,21,68,0.03433,2.054795,0.042422,0.0018,28,77,0.027035000000000003,2.323613,0.034623,0.001199,7
62,182,7.39e-4,0.160824,9.09e-4,1e-6,57,165,6.33e-4,0.131968,7.78e-4,1e-6,106,191,4.05e-4,0.139872,5.15e-4,0,0
22,87,0.006509999999999999,0.39270700000000003,0.008551999999999999,7.3e-5,36,90,0.005281,0.55366,0.006686,4.5e-5,31,66,0.006554000000000001,0.646686,0.008128,6.6e-5,4
25,34,0.022965,1.652983,0.029906,8.939999999999999e-4,23,67,0.010211,0.7242149999999999,0.013555000000000001,1.84e-4,21,81,0.008325,0.68867,0.010202,1.0400000000000001e-4,8
51,153,0.001181,0.171727,0.00146,2e-6,59,173,7.769999999999999e-4,0.14848,9.699999999999999e-4,1e-6,62,185,5.9e-4,0.128299,7.35e-4,1e-6,0
54,130,0.001602,0.251827,0.002165,5e-6,22,57,0.009598,0.7498,0.011445,1.31e-4,34,81,0.0060539999999999995,0.567567,0.007645999999999999,5.7999999999999994e-5,4
62,180,8.410000000000001e-4,0.155048,0.001094,1e-6,59,149,7.85e-4,0.134982,9.660000000000001e-4,1e-6,103,191,3.7200000000000004e-4,0.12551099999999998,4.63e-4,0,0
19,84,0.004125,0.29078200000000004,0.005166,2.7000000000000002e-5,24,67,0.01235,0.908115,0.015972999999999998,2.5499999999999996e-4,30,102,0.004173,0.36659200000000003,0.005305,2.8000000000000003e-5,5
34,152,9.87e-4,0.128863,0.00125,2e-6,69,174,5.59e-4,0.118323,7.25e-4,1e-6,89,183,4.1900000000000005e-4,0.120249,5.13e-4,0,0
28,137,0.0018440000000000002,0.168736,0.0026100000000000003,7.000000000000001e-6,34,87,0.00373,0.358819,0.004835,2.3e-5,32,138,0.001952,0.217937,0.00252,6e-6,5
55,166,6.14e-4,0.11942,7.379999999999999e-4,1e-6,91,185,4.99e-4,0.130517,6.33e-4,0,67,185,6.76e-4,0.13804,8.380000000000001e-4,1e-6,0
99,188,4.969999999999999e-4,0.135278,6.25e-4,0,81,170,6.67e-4,0.12205899999999999,9.15e-4,1e-6,92,178,5.09e-4,0.135074,6.56e-4,0,0
41,107,0.002643,0.282131,0.0034460000000000003,1.2e-5,31,90,0.005319,0.43116400000000005,0.006818,4.6e-5,32,111,0.0034869999999999996,0.381946,0.004621,2.1e-5,2
33,124,0.00159,0.18451900000000002,0.001995,4e-6,33,127,0.001929,0.194517,0.0026,7.000000000000001e-6,25,121,0.002849,0.25583,0.0035619999999999996,1.3000000000000001e-5,2
37,95,0.002785,0.291889,0.003563,1.3000000000000001e-5,29,90,0.004554,0.389212,0.006005,3.6e-5,23,73,0.008152,0.73015,0.009602,9.2e-5,3
33,130,0.003165,0.23954699999999998,0.004419,2e-5,20,112,0.004517,0.31915,0.006028,3.6e-5,37,123,0.002973,0.304023,0.003964,1.6e-5,8
24,114,0.0034560000000000003,0.267135,0.004333,1.9e-5,23,97,0.0064069999999999995,0.478584,0.007816,6.1e-5,34,83,0.004809000000000001,0.528367,0.005982,3.6e-5,9
34,103,0.002499,0.259614,0.0031320000000000002,1e-5,20,80,0.006552,0.48891599999999996,0.008418,7.099999999999999e-5,32,111,0.0031969999999999998,0.30389099999999997,0.004242,1.8e-5,6
28,122,0.002771,0.22580999999999998,0.003616,1.3000000000000001e-5,36,86,0.003083,0.320754,0.003997,1.6e-5,29,109,0.003069,0.286674,0.003715,1.4000000000000001e-5,2
62,151,4.8499999999999997e-4,0.107302,5.82e-4,0,38,130,0.001206,0.159376,0.0014089999999999999,2e-6,50,152,9.06e-4,0.154791,0.001086,1e-6,0
78,176,5.6e-4,0.13833900000000002,6.98e-4,0,77,177,5.84e-4,0.12296800000000001,7.24e-4,1e-6,62,187,6.580000000000001e-4,0.146545,8.28e-4,1e-6,0
30,120,0.002258,0.25392600000000004,0.002853,8e-6,25,102,0.0055,0.498338,0.007225,5.2000000000000004e-5,25,67,0.011738,0.9543360000000001,0.015043,2.26e-4,7
77,176,6.889999999999999e-4,0.130974,8.63e-4,1e-6,58,155,9.21e-4,0.14641099999999999,0.001188,1e-6,69,169,7.52e-4,0.148573,9.58e-4,1e-6,0
23,66,0.006498,0.509426,0.007901,6.2e-5,25,65,0.010831,0.927277,0.013447,1.81e-4,27,63,0.014012,1.10491,0.016534,2.73e-4,4
33,137,0.0016760000000000002,0.17433900000000002,0.002127,5e-6,37,123,0.0016170000000000002,0.1962,0.0020440000000000002,4e-6,21,91,0.0051909999999999994,0.340192,0.006587000000000001,4.3e-5,3
30,134,0.001808,0.18540299999999998,0.002245,5e-6,40,92,0.003207,0.33664,0.004305,1.9e-5,26,64,0.00939,0.7430680000000001,0.011533,1.33e-4,3
38,126,0.002036,0.270905,0.002572,7.000000000000001e-6,30,78,0.008015999999999999,0.651197,0.010218000000000001,1.0400000000000001e-4,28,65,0.010393000000000001,0.963284,0.01299,1.69e-4,4
81,183,5.66e-4,0.14027,7.030000000000001e-4,0,44,157,0.001086,0.153552,0.0012900000000000001,2e-6,61,161,7.160000000000001e-4,0.13867000000000002,8.84e-4,1e-6,0
18,71,0.005664,0.394888,0.007304000000000001,5.3e-5,31,99,0.003474,0.31324,0.004636,2.1e-5,26,80,0.005658,0.46265200000000006,0.0073290000000000004,5.4000000000000005e-5,4
38,109,0.0031100000000000004,0.325477,0.0042450000000000005,1.8e-5,24,73,0.009175,0.816105,0.012216,1.49e-4,25,80,0.011394,0.948501,0.014542,2.1099999999999998e-4,9
59,177,5.99e-4,0.1189,7.379999999999999e-4,1e-6,55,158,9.67e-4,0.16253,0.001225,2e-6,42,134,0.0019320000000000001,0.189557,0.0024739999999999996,6e-6,7
30,112,0.003797,0.316085,0.005873,3.4e-5,18,75,0.008313,0.512383,0.010506,1.1e-4,30,90,0.005869,0.48573,0.007705,5.9e-5,0
24,65,0.005307,0.398332,0.006862999999999999,4.7e-5,34,113,0.002636,0.258802,0.003378,1.1e-5,30,111,0.0044859999999999995,0.37967399999999996,0.005817,3.4e-5,8
82,181,5.740000000000001e-4,0.142959,7.17e-4,1e-6,72,165,6.99e-4,0.13106199999999998,9.26e-4,1e-6,63,158,6.76e-4,0.145217,8.59e-4,1e-6,0
90,187,5.51e-4,0.14998399999999998,6.730000000000001e-4,0,68,182,5.37e-4,0.128223,0.00064900000000000005,0,51,144,0.001255,0.19180999999999998,0.001556,2e-6,0
84,184,4.79e-4,0.121298,6.12e-4,0,81,141,7.25e-4,0.173153,9.019999999999999e-4,1e-6,82,170,6.42e-4,0.145545,8.19e-4,1e-6,0
26,95,0.0033979999999999995,0.29899899999999996,0.0045509999999999995,2.1e-5,28,86,0.0065650000000000005,0.5604520000000001,0.008343000000000001,7e-5,30,70,0.009613,0.8573379999999999,0.012641,1.6e-4,7
73,168,7.37e-4,0.140434,9.78e-4,1e-6,72,166,6.83e-4,0.126566,8.75e-4,1e-6,73,182,5.89e-4,0.135204,7.32e-4,1e-6,0
81,179,5.4e-4,0.132939,6.51e-4,0,113,174,4.0599999999999995e-4,0.137008,5.23e-4,0,44,160,0.001066,0.154152,0.001341,2e-6,0
81,182,6.219999999999999e-4,0.146592,7.78e-4,1e-6,76,186,6.17e-4,0.130646,7.95e-4,1e-6,72,175,7.11e-4,0.150678,8.74e-4,1e-6,0
31,98,0.006156,0.417658,0.008542000000000001,7.3e-5,20,78,0.009003,0.684034,0.01096,1.1999999999999999e-4,20,62,0.015337,1.002843,0.018429,3.39e-4,4
80,188,5.83e-4,0.145796,7.379999999999999e-4,1e-6,57,170,6.320000000000001e-4,0.126754,8.2e-4,1e-6,72,176,7.26e-4,0.15121400000000002,9.07e-4,1e-6,0
56,139,9.220000000000001e-4,0.15145999999999998,0.0011949999999999999,1e-6,44,143,7.82e-4,0.125247,9.550000000000001e-4,1e-6,40,153,0.001092,0.15698499999999999,0.0012980000000000001,2e-6,0
41,156,9.86e-4,0.13392300000000001,0.001335,2e-6,43,122,0.001267,0.164448,0.001629,3e-6,35,138,0.0017350000000000002,0.181626,0.002297,5e-6,0
77,190,5.25e-4,0.135752,6.57e-4,0,63,163,9.06e-4,0.150863,0.001294,2e-6,55,152,0.001539,0.183648,0.0022559999999999998,5e-6,0
37,133,0.00199,0.200695,0.002997,9e-6,58,143,0.001841,0.160019,0.002834,8e-6,30,128,0.001978,0.22371799999999997,0.0025039999999999997,6e-6,3
40,149,0.001287,0.173469,0.0015539999999999998,2e-6,27,110,0.00237,0.23444099999999998,0.0028280000000000002,8e-6,25,115,0.002703,0.246824,0.0034130000000000002,1.2e-5,0
68,176,0.00064900000000000005,0.141908,8.089999999999999e-4,1e-6,56,160,7.17e-4,0.137962,8.77e-4,1e-6,129,187,3.37e-4,0.13460999999999998,4.3e-4,0,0
29,73,0.010416,0.737815,0.015261000000000002,2.33e-4,31,66,0.015062,1.46411,0.020188,4.07e-4,27,72,0.022211,1.918741,0.028013999999999997,7.84e-4,0
14,82,0.010573,0.662821,0.015229,2.3199999999999997e-4,24,81,0.010993000000000001,0.9305040000000001,0.013874000000000001,1.92e-4,25,65,0.012953999999999999,1.156536,0.016404,2.69e-4,4
105,194,4.8300000000000003e-4,0.145804,6.01e-4,0,43,171,7.5e-4,0.128724,9.109999999999999e-4,1e-6,55,171,9.58e-4,0.15831900000000002,0.001175,1e-6,0
20,112,0.004453,0.332165,0.005607,3.1e-5,24,64,0.007790000000000001,0.5717409999999999,0.010076,1.01e-4,25,76,0.008006000000000001,0.648115,0.010648000000000001,1.13e-4,0
37,144,0.001962,0.219099,0.0026190000000000002,7.000000000000001e-6,22,100,0.005501,0.44613,0.006412,4.1e-5,30,79,0.008347,0.773913,0.011556,1.33e-4,0
60,172,7.34e-4,0.142817,8.880000000000001e-4,1e-6,70,167,5.809999999999999e-4,0.12526600000000002,7.35e-4,1e-6,73,173,6.04e-4,0.13983199999999998,7.379999999999999e-4,1e-6,0
69,184,5.4e-4,0.125546,6.889999999999999e-4,0,54,184,6.929999999999999e-4,0.131642,8.42e-4,1e-6,90,178,4.8300000000000003e-4,0.127,6.04e-4,0,0
65,174,6.81e-4,0.133414,9.1e-4,1e-6,85,198,5.15e-4,0.129975,6.27e-4,0,97,169,4.4400000000000006e-4,0.132448,5.59e-4,0,0
139,189,2.6000000000000003e-4,0.109355,3.24e-4,0,60,180,6.18e-4,0.130921,7.72e-4,1e-6,115,191,4.36e-4,0.133395,5.63e-4,0,0
34,128,0.002043,0.21666799999999997,0.00251,6e-6,36,70,0.0036969999999999998,0.35867899999999997,0.004833,2.3e-5,34,54,0.008119,0.772994,0.00992,9.8e-5,3
64,157,0.001005,0.172122,0.001277,2e-6,56,167,6.91e-4,0.134525,8.529999999999999e-4,1e-6,97,186,4.39e-4,0.13553800000000002,5.6e-4,0,0
59,172,9.16e-4,0.163326,0.001172,1e-6,60,143,0.001053,0.17033099999999998,0.0013859999999999999,2e-6,71,186,7.019999999999999e-4,0.162427,8.759999999999999e-4,1e-6,0
43,141,0.001603,0.174538,0.0023239999999999997,5e-6,32,121,0.00265,0.247881,0.0033490000000000004,1.1e-5,37,111,0.002734,0.315728,0.003694,1.4000000000000001e-5,8
98,183,3.77e-4,0.117958,4.93e-4,0,60,170,6.61e-4,0.13095199999999999,8.380000000000001e-4,1e-6,90,195,4.92e-4,0.13428199999999998,6.309999999999999e-4,0,0
31,114,0.002257,0.21588800000000002,0.00298,9e-6,22,94,0.004749000000000001,0.37549,0.0058119999999999995,3.4e-5,29,94,0.0038369999999999997,0.40213899999999997,0.0048270000000000006,2.3e-5,2
28,99,0.004599,0.361288,0.006188,3.8e-5,21,64,0.010453,0.806801,0.013683,1.8700000000000002e-4,15,65,0.009622,0.600983,0.01142,1.3000000000000002e-4,5
80,185,5.32e-4,0.123073,6.74e-4,0,54,172,9.15e-4,0.15069200000000002,0.001141,1e-6,100,182,4.2e-4,0.132156,5.29e-4,0,0
21,58,0.006697,0.531976,0.008175,6.7e-5,24,99,0.004224,0.370162,0.006102000000000001,3.7e-5,26,85,0.007726,0.617916,0.009978,9.9e-5,1
61,165,8.029999999999999e-4,0.144253,9.960000000000001e-4,1e-6,39,140,0.001009,0.14715999999999999,0.001207,1e-6,82,189,5.5e-4,0.143347,6.929999999999999e-4,0,0
43,147,0.0012779999999999998,0.205102,0.001607,3e-6,24,92,0.004412,0.35175300000000004,0.005691,3.2e-5,28,134,0.0029460000000000003,0.256392,0.004182,1.7e-5,6
43,161,9.550000000000001e-4,0.134786,0.001233,2e-6,69,177,5.5e-4,0.12319000000000001,6.72e-4,0,87,176,5.24e-4,0.136729,6.85e-4,0,0
22,103,0.0035770000000000003,0.268667,0.004301,1.8e-5,15,87,0.008481,0.531066,0.010212,1.0400000000000001e-4,34,87,0.005714,0.535747,0.0076489999999999995,5.7999999999999994e-5,9
64,178,6.450000000000001e-4,0.13666099999999998,7.99e-4,1e-6,62,163,6.83e-4,0.134168,8.49e-4,1e-6,42,159,8.939999999999999e-4,0.14793,0.001067,1e-6,0
47,163,8.8e-4,0.148305,0.001059,1e-6,95,186,5.31e-4,0.13675199999999998,6.799999999999999e-4,0,62,166,8.69e-4,0.166354,0.0010689999999999999,1e-6,0
56,176,8.289999999999999e-4,0.143228,0.001052,1e-6,52,154,9.21e-4,0.146501,0.001159,1e-6,42,155,0.001108,0.170992,0.001367,2e-6,0
21,107,0.003454,0.32214,0.004325,1.9e-5,27,76,0.010348999999999999,0.8348459999999999,0.013446000000000001,1.81e-4,33,85,0.009257,0.9518909999999999,0.012395999999999999,1.53e-4,1
27,56,0.012639,0.835634,0.018968000000000002,3.6e-4,20,55,0.041951999999999996,3.180397,0.054724,0.002989,21,64,0.038176,2.548467,0.048152999999999994,0.002316,9
67,177,5.9e-4,0.130682,7.22e-4,1e-6,83,169,5.42e-4,0.12173099999999999,7.3e-4,1e-6,114,181,3.5499999999999996e-4,0.126909,4.4e-4,0,0
47,165,0.001077,0.163645,0.001303,2e-6,73,161,6.349999999999999e-4,0.147787,7.94e-4,1e-6,123,194,3.2e-4,0.11964200000000001,4.07e-4,0,0
91,176,5.070000000000001e-4,0.13252,6.18e-4,0,60,177,6.07e-4,0.127271,7.440000000000001e-4,1e-6,88,164,5.95e-4,0.147533,7.93e-4,1e-6,0
138,191,2.6000000000000003e-4,0.105423,3.25e-4,0,49,174,7.639999999999999e-4,0.13341,9.660000000000001e-4,1e-6,137,184,3.23e-4,0.130966,3.91e-4,0,0
60,187,7.9e-4,0.149542,9.84e-4,1e-6,50,149,0.001026,0.172948,0.001255,2e-6,70,179,5.66e-4,0.13905399999999998,6.79e-4,0,0
98,172,0.001163,0.17794400000000002,0.0023989999999999997,6e-6,70,153,0.00448,0.45920900000000003,0.016068,2.54e-4,111,160,0.006968000000000001,0.665227,0.017438,3.03e-4,0
24,96,0.003244,0.27995,0.003899,1.4999999999999999e-5,41,122,0.002102,0.23959499999999997,0.002578,7.000000000000001e-6,21,65,0.008379000000000001,0.532334,0.010478,1.09e-4,2
23,65,0.016373,1.2211049999999999,0.021079,4.43e-4,31,77,0.014061,1.268648,0.017145,2.94e-4,33,80,0.017337,1.608833,0.021822,4.7599999999999997e-4,1
23,62,0.011720999999999999,0.8542559999999999,0.014851,2.2e-4,26,80,0.016045,1.373764,0.019579,3.83e-4,30,81,0.025152,2.422009,0.032695999999999996,0.001067,7
22,82,0.00572,0.40971499999999994,0.007213,5.2000000000000004e-5,27,59,0.012342,1.0231379999999999,0.016628,2.76e-4,30,70,0.008836,0.794219,0.012362,1.53e-4,9
40,129,0.001713,0.22444899999999998,0.002113,4e-6,26,103,0.0036780000000000003,0.327409,0.004838,2.3e-5,27,118,0.002723,0.25049099999999996,0.003481,1.2e-5,6
23,116,0.004274,0.37243200000000004,0.005573,3.1e-5,33,74,0.0065060000000000005,0.709271,0.008005,6.4e-5,28,69,0.009297,0.802219,0.011807,1.39e-4,4
76,183,6.16e-4,0.148582,7.84e-4,1e-6,30,147,0.001281,0.15212799999999999,0.001575,2e-6,67,165,8.66e-4,0.170523,0.0011070000000000001,1e-6,0
63,162,0.0010949999999999998,0.177065,0.001452,2e-6,65,168,8.28e-4,0.149014,0.001029,1e-6,84,187,4.4e-4,0.125752,5.39e-4,0,0
48,161,0.0012439999999999999,0.171216,0.001574,2e-6,26,66,0.007824,0.690229,0.010567,1.1200000000000001e-4,47,151,0.001541,0.20291199999999998,0.0022559999999999998,5e-6,6
31,118,0.003116,0.293951,0.0047020000000000005,2.2e-5,23,76,0.00692,0.5378390000000001,0.010431000000000001,1.09e-4,26,78,0.007551,0.6101449999999999,0.009272,8.6e-5,2
86,169,4.7999999999999996e-4,0.114122,6.25e-4,0,81,173,5.6e-4,0.12255,7.27e-4,1e-6,62,157,6.46e-4,0.129447,7.99e-4,1e-6,0
24,51,0.013863,1.0026950000000001,0.019358,3.75e-4,19,38,0.042468,2.586656,0.053639,0.0028770000000000002,23,72,0.014584,1.1069120000000001,0.018789,3.5299999999999996e-4,5
65,170,6.2e-4,0.130572,8.01e-4,1e-6,77,179,5.72e-4,0.129471,7.019999999999999e-4,0,51,151,6.6e-4,0.125173,8.31e-4,1e-6,0
35,118,0.002405,0.275971,0.0029649999999999998,9e-6,38,69,0.005197,0.521863,0.006813,4.6e-5,24,70,0.008226,0.628401,0.010944,1.1999999999999999e-4,4
25,76,0.00563,0.408252,0.007037999999999999,5e-5,41,134,0.001695,0.200254,0.0022440000000000003,5e-6,29,82,0.0048530000000000005,0.377658,0.006509,4.2e-5,1
29,85,0.004979,0.39722399999999997,0.006745999999999999,4.5e-5,30,74,0.005417,0.556932,0.006631999999999999,4.4e-5,37,90,0.0061979999999999995,0.598629,0.008939,8e-5,1
74,172,6.62e-4,0.144279,8.619999999999999e-4,1e-6,36,169,0.001023,0.150321,0.001228,2e-6,70,177,6.230000000000001e-4,0.13510899999999998,7.769999999999999e-4,1e-6,0
22,49,0.024998,1.375521,0.038775,0.0015019999999999999,25,66,0.012184,0.960417,0.016843,2.8199999999999997e-4,29,69,0.01687,1.444549,0.022275,4.96e-4,1
43,134,0.0018670000000000002,0.214218,0.002403,6e-6,20,94,0.005453,0.42480500000000004,0.00703,4.9e-5,21,80,0.005335,0.45444399999999996,0.007045,5e-5,6
29,83,0.0037619999999999997,0.33271300000000004,0.004718,2.2e-5,26,86,0.008931999999999999,0.739218,0.011737000000000001,1.38e-4,28,77,0.012043,0.9668559999999999,0.015449000000000001,2.39e-4,9
79,182,5.780000000000001e-4,0.155869,7.13e-4,1e-6,88,178,5.16e-4,0.132606,6.84e-4,0,64,171,5.52e-4,0.128307,6.83e-4,0,0
36,127,0.0010710000000000001,0.130219,0.001219,1e-6,51,158,7.87e-4,0.136904,9.77e-4,1e-6,37,159,0.00114,0.150103,0.001395,2e-6,0
78,176,5.41e-4,0.138234,6.85e-4,0,51,161,7.32e-4,0.129967,9.140000000000001e-4,1e-6,75,173,6.11e-4,0.134953,7.54e-4,1e-6,0
138,196,3e-4,0.11595899999999999,3.94e-4,0,64,173,5.91e-4,0.111364,7.28e-4,1e-6,86,180,4.21e-4,0.12294100000000001,5.269999999999999e-4,0,0
51,142,0.001099,0.144077,0.001395,2e-6,69,155,5.009999999999999e-4,0.109027,6.25e-4,0,52,151,8.83e-4,0.134373,0.0010810000000000001,1e-6,0
23,120,0.002732,0.23660799999999998,0.0034560000000000003,1.2e-5,24,89,0.005178,0.457851,0.006647,4.4e-5,20,90,0.0058920000000000005,0.46558999999999995,0.00735,5.4000000000000005e-5,8
97,184,3.7e-4,0.10683499999999999,4.71e-4,0,67,171,6.57e-4,0.138963,8.31e-4,1e-6,77,183,7.62e-4,0.15557000000000001,9.62e-4,1e-6,0
22,118,0.0022129999999999997,0.189594,0.002886,8e-6,56,154,8.710000000000001e-4,0.154778,0.001105,1e-6,34,151,0.001324,0.17191700000000001,0.001928,4e-6,0
57,145,0.0013210000000000001,0.20613,0.00164,3e-6,30,79,0.005217,0.415911,0.006695,4.5e-5,28,103,0.003817,0.335343,0.004784,2.3e-5,6
54,176,6.69e-4,0.129896,8.19e-4,1e-6,46,154,8.65e-4,0.135799,0.001073,1e-6,74,162,5.769999999999999e-4,0.137241,7.15e-4,1e-6,0
103,188,3.64e-4,0.107775,4.59e-4,0,42,158,8.060000000000001e-4,0.136021,9.390000000000001e-4,1e-6,79,190,5.59e-4,0.13697,6.86e-4,0,0
76,179,6.29e-4,0.143264,8.05e-4,1e-6,45,138,0.0010710000000000001,0.154425,0.001333,2e-6,56,159,0.001157,0.182811,0.001501,2e-6,0
39,129,0.0022140000000000003,0.220183,0.0034560000000000003,1.2e-5,43,135,0.0018780000000000001,0.195305,0.002525,6e-6,44,137,0.0017760000000000002,0.216896,0.002238,5e-6,0
18,67,0.007568999999999999,0.5007229999999999,0.009384,8.8e-5,23,73,0.0055119999999999995,0.460621,0.006714,4.5e-5,25,100,0.004079,0.366676,0.004964,2.5e-5,8
26,104,0.0040149999999999995,0.26453499999999996,0.005007,2.5e-5,37,99,0.0030489999999999996,0.32093299999999997,0.0040479999999999995,1.6e-5,31,114,0.003992,0.349089,0.005396,2.8999999999999997e-5,5
27,97,0.003387,0.285242,0.004098,1.7e-5,31,85,0.00466,0.446275,0.006104,3.7e-5,23,78,0.007252,0.604935,0.008597,7.4e-5,3
80,185,5.24e-4,0.134142,6.53e-4,0,78,164,5.29e-4,0.122557,6.78e-4,0,65,175,6.08e-4,0.13558599999999998,7.160000000000001e-4,1e-6,0
52,178,7.28e-4,0.142778,8.869999999999999e-4,1e-6,60,164,7.39e-4,0.130145,9.42e-4,1e-6,66,180,6.59e-4,0.132537,8.39e-4,1e-6,0
24,73,0.008989,0.6253890000000001,0.011704,1.3700000000000002e-4,22,51,0.023954,1.785565,0.029914999999999997,8.95e-4,37,91,0.009037,0.991325,0.011529000000000001,1.33e-4,9
40,146,0.001239,0.158111,0.0015199999999999999,2e-6,34,116,0.001374,0.159908,0.001663,3e-6,33,113,0.001994,0.21544699999999997,0.002286,5e-6,0
25,107,0.003527,0.286528,0.0044399999999999995,2e-5,32,96,0.0044340000000000004,0.399152,0.005973,3.6e-5,32,71,0.008531,0.7443390000000001,0.011387999999999999,1.3000000000000002e-4,8
29,103,0.003324,0.33111799999999997,0.004458,2e-5,28,59,0.012015999999999999,0.996972,0.015241999999999999,2.3199999999999997e-4,28,67,0.00824,0.748087,0.010851999999999999,1.18e-4,4
36,124,0.0015789999999999999,0.184001,0.0019320000000000001,4e-6,40,124,0.001258,0.169237,0.001541,2e-6,32,104,0.0033350000000000003,0.305261,0.00449,2e-5,0
28,116,0.002286,0.200148,0.002911,8e-6,36,145,0.0018559999999999998,0.210617,0.002468,6e-6,29,94,0.0043950000000000005,0.400891,0.005733,3.3e-5,3
52,172,7.13e-4,0.120012,8.52e-4,1e-6,77,171,5.16e-4,0.127531,6.4e-4,0,64,169,7.830000000000001e-4,0.142561,0.001013,1e-6,0
53,186,7.12e-4,0.13131900000000002,8.939999999999999e-4,1e-6,37,101,0.001925,0.21406799999999998,0.002294,5e-6,43,149,0.001025,0.153609,0.001243,2e-6,0
31,129,0.001796,0.201138,0.0021969999999999997,5e-6,47,164,0.0014089999999999999,0.16786199999999998,0.0017989999999999998,3e-6,25,95,0.0041670000000000006,0.35336,0.005007999999999999,2.5e-5,6
36,104,0.003486,0.340014,0.004769,2.3e-5,24,76,0.012775,1.102832,0.015929,2.54e-4,17,75,0.017506999999999998,1.154463,0.021754,4.7300000000000006e-4,9
73,156,0.0036780000000000003,0.390764,0.010162000000000001,1.02e-4,47,129,0.014862,1.092481,0.033431,0.001117,59,137,0.007615,0.46979799999999994,0.017130000000000003,2.93e-4,5
22,81,0.005053,0.41611099999999995,0.006371,4.1e-5,20,90,0.004555,0.35723699999999997,0.005736,3.3e-5,27,69,0.005953,0.554194,0.0072180000000000005,5.2000000000000004e-5,1
32,80,0.0051909999999999994,0.46412200000000003,0.006551,4.3e-5,31,72,0.009170000000000001,0.9264450000000001,0.01215,1.48e-4,28,60,0.013881000000000001,1.17353,0.016738999999999997,2.8e-4,4
34,99,0.002762,0.28213,0.003435,1.2e-5,34,93,0.005294,0.461308,0.006765,4.6e-5,26,88,0.0037409999999999995,0.34991700000000003,0.0045850000000000005,2.1e-5,2
37,82,0.0027429999999999998,0.294518,0.0036409999999999997,1.3000000000000001e-5,27,85,0.005762,0.491375,0.007262,5.3e-5,32,72,0.007015,0.704102,0.008587000000000001,7.4e-5,3
91,174,4.13e-4,0.12852,5.070000000000001e-4,0,52,152,8.410000000000001e-4,0.14463399999999998,0.001053,1e-6,31,137,0.001257,0.167667,0.001491,2e-6,0
129,198,2.5699999999999996e-4,0.100882,3.31e-4,0,112,187,3.59e-4,0.121896,4.5e-4,0,101,192,4.2199999999999996e-4,0.133971,5.22e-4,0,0
136,196,2.6000000000000003e-4,0.10396300000000001,3.37e-4,0,82,178,4.87e-4,0.11737,6.259999999999999e-4,0,74,181,4.79e-4,0.130394,5.92e-4,0,0
18,108,0.005115,0.30490700000000004,0.007372,5.4000000000000005e-5,26,121,0.003928,0.321602,0.004988,2.5e-5,28,106,0.004074,0.325683,0.005727,3.3e-5,7
28,96,0.0047729999999999995,0.369352,0.0062759999999999995,3.9e-5,21,77,0.01027,0.8901530000000001,0.013022999999999998,1.6999999999999999e-4,34,90,0.008931999999999999,0.9515620000000001,0.01151,1.32e-4,4
63,183,5.72e-4,0.12824100000000002,6.900000000000001e-4,0,66,175,5.86e-4,0.129411,7.13e-4,1e-6,50,175,7.830000000000001e-4,0.133761,9.81e-4,1e-6,0
20,53,0.014719,1.046201,0.019709,3.88e-4,26,67,0.010114,0.8595700000000001,0.01305,1.6999999999999999e-4,27,95,0.0076560000000000005,0.706595,0.009312,8.7e-5,8
29,108,0.002799,0.244022,0.00349,1.2e-5,29,89,0.004878,0.45160500000000003,0.006624,4.4e-5,22,97,0.004190999999999999,0.382345,0.0052640000000000004,2.8000000000000003e-5,6
32,110,0.00305,0.25615,0.004077,1.7e-5,25,91,0.006470999999999999,0.550178,0.00783,6.1e-5,25,64,0.012407,1.0120120000000001,0.015300999999999999,2.34e-4,7
72,180,5.99e-4,0.145795,7.72e-4,1e-6,46,174,7.62e-4,0.125099,9.199999999999999e-4,1e-6,50,172,0.001175,0.145727,0.001567,2e-6,0
27,117,0.0028120000000000003,0.230188,0.003529,1.2e-5,30,96,0.002345,0.24180700000000002,0.0028120000000000003,8e-6,33,107,0.002343,0.25786,0.0030210000000000002,9e-6,0
42,146,0.001111,0.163144,0.001376,2e-6,63,183,6.21e-4,0.130421,7.55e-4,1e-6,50,157,0.001083,0.163976,0.001364,2e-6,0
25,104,0.002898,0.262425,0.003599,1.3000000000000001e-5,24,83,0.008020999999999999,0.614035,0.010342,1.0700000000000001e-4,25,65,0.012836000000000002,1.004909,0.015994,2.56e-4,7
75,177,5.53e-4,0.14571199999999998,6.82e-4,0,33,136,0.001478,0.178799,0.0017629999999999998,3e-6,42,160,0.00108,0.165219,0.0014089999999999999,2e-6,0
63,159,4.92e-4,0.106743,6.15e-4,0,40,139,0.001255,0.153436,0.001519,2e-6,30,115,0.0021609999999999997,0.214507,0.002843,8e-6,0
56,174,7.86e-4,0.149589,9.82e-4,1e-6,74,184,6.519999999999999e-4,0.144817,8.230000000000001e-4,1e-6,87,182,5.38e-4,0.139787,6.87e-4,0,0
35,115,0.002372,0.249385,0.0031940000000000002,1e-5,33,60,0.00806,0.6884520000000001,0.010844,1.18e-4,34,101,0.0035840000000000004,0.376348,0.004723,2.2e-5,5
29,95,0.0034579999999999997,0.33021300000000003,0.00443,2e-5,23,90,0.0062439999999999996,0.520517,0.007447,5.5e-5,19,70,0.013966999999999999,0.9966790000000001,0.016434999999999998,2.7e-4,7
29,89,0.003333,0.30608,0.004093,1.7e-5,27,77,0.008879999999999999,0.778878,0.011927,1.4199999999999998e-4,30,77,0.008668,0.755386,0.012177,1.48e-4,7
28,96,0.0035759999999999998,0.317092,0.0043950000000000005,1.9e-5,27,85,0.004971,0.437805,0.006253,3.9e-5,24,77,0.009120999999999999,0.768692,0.012296,1.51e-4,7
34,105,0.003549,0.324408,0.004775,2.3e-5,30,82,0.005898,0.566301,0.007594,5.7999999999999994e-5,24,56,0.012579,0.9323440000000001,0.015806,2.5e-4,7
62,172,7.99e-4,0.145035,9.81e-4,1e-6,66,168,0.0010710000000000001,0.183609,0.002381,6e-6,75,183,4.87e-4,0.11898800000000001,5.97e-4,0,0
47,127,0.007666,0.554307,0.015045,2.25e-4,41,109,0.0055049999999999995,0.457851,0.00885,7.8e-5,51,125,0.0029879999999999998,0.371935,0.004751,2.3e-5,0
34,158,0.001188,0.155601,0.00148,2e-6,35,140,0.001129,0.142101,0.0014320000000000001,2e-6,44,159,0.001137,0.15954100000000002,0.001415,2e-6,0
36,98,0.003718,0.370029,0.004907,2.4e-5,27,69,0.0087,0.7908390000000001,0.010546,1.1100000000000001e-4,21,55,0.014293,1.195997,0.017156,2.94e-4,4
25,72,0.008326,0.6795939999999999,0.010223999999999999,1.0400000000000001e-4,21,65,0.009876000000000001,0.819293,0.011583,1.34e-4,26,65,0.015525,1.187651,0.019769,3.91e-4,1
70,195,6.7e-4,0.149082,8.63e-4,1e-6,64,173,5.85e-4,0.130246,7.24e-4,1e-6,78,181,5.809999999999999e-4,0.147368,7.22e-4,1e-6,0
115,192,2.93e-4,0.10418499999999999,3.7200000000000004e-4,0,133,189,3.03e-4,0.119154,3.81e-4,0,131,196,2.99e-4,0.12108,3.7400000000000004e-4,0,0
28,127,0.0016719999999999999,0.164073,0.002096,4e-6,44,130,0.0017870000000000002,0.202048,0.002461,6e-6,30,113,0.00203,0.211277,0.002931,9e-6,0
49,127,0.00176,0.23492600000000002,0.002329,5e-6,25,64,0.0067079999999999996,0.540366,0.008034999999999999,6.500000000000001e-5,35,82,0.004898,0.456854,0.006382,4.1e-5,4
24,87,0.0040490000000000005,0.33229200000000003,0.005291,2.8000000000000003e-5,17,74,0.007497,0.471129,0.009112,8.3e-5,31,79,0.006756,0.6469600000000001,0.008665,7.5e-5,3
32,96,0.003139,0.262228,0.003907,1.4999999999999999e-5,30,82,0.007281,0.616183,0.009228,8.499999999999999e-5,24,73,0.010098000000000001,0.890949,0.012435,1.55e-4,9
20,63,0.006527,0.44813400000000003,0.008672,7.5e-5,22,80,0.005651,0.476596,0.007331,5.4000000000000005e-5,30,91,0.004884,0.497414,0.006239,3.9e-5,8
50,150,0.001268,0.17594500000000002,0.0016420000000000002,3e-6,45,167,0.001056,0.136688,0.001576,2e-6,43,118,0.001594,0.19452,0.002015,4e-6,0
88,181,4.3499999999999995e-4,0.123174,5.41e-4,0,64,175,5.17e-4,0.12184500000000001,6.230000000000001e-4,0,89,171,4.8499999999999997e-4,0.14033199999999998,6.11e-4,0,0
30,115,0.0019809999999999997,0.20864699999999997,0.002389,6e-6,33,113,0.003218,0.290952,0.0052060000000000006,2.7000000000000002e-5,36,101,0.002925,0.30548600000000004,0.0037229999999999997,1.4000000000000001e-5,2
126,194,3.88e-4,0.149429,4.84e-4,0,81,187,5.53e-4,0.1305,7.28e-4,1e-6,147,200,2.8700000000000004e-4,0.131141,3.63e-4,0,0
44,144,0.001126,0.148755,0.001377,2e-6,96,180,4.53e-4,0.128339,5.72e-4,0,47,153,9.07e-4,0.162712,0.001112,1e-6,0
58,169,6.98e-4,0.135978,8.92e-4,1e-6,80,162,4.93e-4,0.10898699999999999,6.230000000000001e-4,0,90,167,5.35e-4,0.134128,6.59e-4,0,0
18,89,0.00491,0.380698,0.006492,4.2e-5,34,71,0.006566,0.6769470000000001,0.008178,6.7e-5,21,67,0.014769,1.207493,0.017695,3.1299999999999996e-4,1
57,163,7.24e-4,0.132243,9.25e-4,1e-6,54,155,8.900000000000001e-4,0.14594200000000002,0.001094,1e-6,56,167,6.14e-4,0.122298,7.440000000000001e-4,1e-6,0
27,106,0.003124,0.239664,0.004496,2e-5,21,90,0.005707,0.41851400000000005,0.007564,5.6999999999999996e-5,28,109,0.004519,0.35262,0.0060490000000000006,3.6e-5,5
22,66,0.009491,0.623279,0.012669,1.6e-4,28,76,0.008006999999999998,0.640624,0.009678,9.4e-5,26,72,0.011639,1.0536969999999999,0.014191999999999998,2.0099999999999998e-4,1
28,115,0.002438,0.25254699999999997,0.002978,9e-6,23,61,0.009801,0.8202799999999999,0.011821,1.4e-4,32,82,0.00626,0.644029,0.007815,6.1e-5,9
34,125,0.002318,0.215567,0.003479,1.2e-5,26,93,0.002884,0.273005,0.0036439999999999997,1.3000000000000001e-5,28,117,0.003208,0.33931100000000003,0.004163,1.7e-5,3
70,182,6.56e-4,0.14657699999999999,8.039999999999999e-4,1e-6,49,139,0.001288,0.163695,0.0016510000000000001,3e-6,46,148,0.001697,0.20389200000000002,0.002176,5e-6,0
25,95,0.0031100000000000004,0.285256,0.004131,1.7e-5,32,109,0.0033490000000000004,0.27221799999999996,0.004733,2.2e-5,24,78,0.007528,0.599159,0.009002,8.1e-5,3
41,134,0.0018440000000000002,0.22595,0.002292,5e-6,33,111,0.00248,0.257255,0.0032270000000000003,1e-5,33,90,0.003989,0.360933,0.005396,2.8999999999999997e-5,6
23,86,0.005797,0.478155,0.007474,5.6000000000000006e-5,26,75,0.009218,0.8130930000000001,0.01214,1.47e-4,24,84,0.005914,0.542469,0.007645,5.7999999999999994e-5,2
51,177,7.12e-4,0.127476,8.74e-4,1e-6,97,183,4.29e-4,0.121851,5.37e-4,0,108,197,3.7e-4,0.124376,4.7699999999999994e-4,0,0
28,92,0.003921,0.376367,0.004738,2.2e-5,26,77,0.006220000000000001,0.5924659999999999,0.0077599999999999995,5.9999999999999995e-5,24,78,0.010254000000000001,0.7637010000000001,0.013299,1.77e-4,1
79,176,5.26e-4,0.131324,6.450000000000001e-4,0,66,170,6.63e-4,0.141087,8.24e-4,1e-6,132,192,3.22e-4,0.133429,3.96e-4,0,0
17,105,0.005009,0.348082,0.006232,3.9e-5,31,80,0.006176,0.576624,0.007718000000000001,5.9999999999999995e-5,31,77,0.007339,0.657371,0.009609999999999999,9.2e-5,4
26,84,0.0043219999999999995,0.37673,0.005382,2.8999999999999997e-5,31,60,0.007462999999999999,0.710332,0.009965,9.9e-5,26,82,0.004661,0.408339,0.005874,3.4e-5,2
38,135,0.00202,0.21993000000000001,0.002522,6e-6,29,106,0.0036130000000000003,0.29678899999999997,0.005063000000000001,2.6000000000000002e-5,20,99,0.005611,0.404567,0.0069700000000000005,4.9e-5,6
25,89,0.004184,0.369336,0.005521,2.9999999999999997e-5,26,75,0.008075,0.702538,0.009996,1e-4,24,62,0.028162,2.0016990000000003,0.034443,0.001186,7
25,92,0.003361,0.26163200000000003,0.004255,1.8e-5,36,105,0.002106,0.241752,0.002704,7.000000000000001e-6,27,69,0.006014,0.416426,0.007926,6.3e-5,1
84,185,3.44e-4,0.10376300000000001,4.2699999999999997e-4,0,82,187,5.76e-4,0.141789,7.23e-4,1e-6,112,197,3.81e-4,0.138468,4.79e-4,0,0
34,157,0.0011480000000000001,0.175727,0.001356,2e-6,78,180,5.44e-4,0.135709,6.74e-4,0,98,193,3.99e-4,0.128631,4.980000000000001e-4,0,0
42,120,0.0019219999999999999,0.216365,0.002462,6e-6,23,100,0.004593,0.39805,0.005821,3.4e-5,25,89,0.00466,0.405725,0.0059759999999999995,3.6e-5,6
21,45,0.027256,1.450666,0.039708999999999994,0.001577,20,74,0.011358,0.9583889999999999,0.014533,2.1099999999999998e-4,22,72,0.022096,1.766443,0.028361,8.01e-4,1
91,184,4.62e-4,0.118835,6.04e-4,0,70,178,6.46e-4,0.128768,8.17e-4,1e-6,83,177,5.099999999999999e-4,0.12747999999999998,6.42e-4,0,0
23,115,0.00294,0.249387,0.003768,1.4000000000000001e-5,29,115,0.0031940000000000002,0.25109899999999996,0.0037619999999999997,1.4000000000000001e-5,21,98,0.005527000000000001,0.391642,0.007348,5.4000000000000005e-5,8
54,158,0.001033,0.159375,0.001415,2e-6,48,150,0.001038,0.149242,0.001482,2e-6,39,143,0.0017460000000000002,0.187657,0.0024519999999999998,6e-6,0
38,151,0.001309,0.17236300000000002,0.0017100000000000001,3e-6,30,103,0.005756,0.48317899999999997,0.007293000000000001,5.3e-5,30,75,0.007547,0.690908,0.009134,8.3e-5,9
41,145,0.001483,0.174048,0.001923,4e-6,49,138,0.0013570000000000001,0.17497000000000001,0.001703,3e-6,26,159,0.001685,0.181617,0.002001,4e-6,0
22,140,0.0029059999999999997,0.223088,0.003882,1.4999999999999999e-5,26,98,0.004862,0.466768,0.006155,3.8e-5,26,74,0.006185,0.5659770000000001,0.007529999999999999,5.6999999999999996e-5,9
21,107,0.0030789999999999997,0.24653699999999998,0.0038740000000000003,1.4999999999999999e-5,40,131,0.001999,0.21246500000000001,0.002357,6e-6,23,81,0.0033490000000000004,0.27526799999999996,0.004098,1.7e-5,0
85,182,4.55e-4,0.12491,5.780000000000001e-4,0,77,159,7.740000000000001e-4,0.143574,0.001083,1e-6,104,181,3.98e-4,0.134615,4.91e-4,0,0
38,139,0.0012109999999999998,0.15246300000000002,0.001482,2e-6,35,143,0.001505,0.173604,0.001902,4e-6,51,156,8.77e-4,0.131894,0.001184,1e-6,0
50,170,8.210000000000001e-4,0.15093499999999999,0.001006,1e-6,37,163,9.49e-4,0.14633,0.001159,1e-6,45,160,9.400000000000001e-4,0.16759200000000002,0.001145,1e-6,0
24,99,0.006135,0.442093,0.007819,6.1e-5,24,81,0.004714,0.43603100000000006,0.005677000000000001,3.2e-5,32,102,0.0048200000000000005,0.49029399999999995,0.006106,3.7e-5,8
88,174,4.13e-4,0.095675,5.5e-4,0,56,161,8.640000000000001e-4,0.14185699999999998,0.001111,1e-6,55,165,0.001126,0.156117,0.001605,3e-6,0
24,116,0.003064,0.277845,0.003919,1.4999999999999999e-5,19,75,0.008272,0.6758149999999999,0.009897,9.8e-5,34,109,0.003151,0.302177,0.00404,1.6e-5,2
115,182,4.11e-4,0.11732100000000001,6.03e-4,0,81,179,4.6699999999999997e-4,0.123293,5.9e-4,0,47,158,9.68e-4,0.161962,0.001183,1e-6,0
72,168,6.98e-4,0.144085,8.75e-4,1e-6,61,167,7.32e-4,0.138928,9.019999999999999e-4,1e-6,115,179,3.7999999999999997e-4,0.134099,4.88e-4,0,0
83,176,5.41e-4,0.14899300000000001,6.69e-4,0,84,171,4.8499999999999997e-4,0.129605,5.96e-4,0,88,179,5.099999999999999e-4,0.13551400000000002,6.48e-4,0,0
21,38,0.046449000000000004,2.887571,0.057343,0.003288,18,76,0.06357,3.987582,0.11087000000000001,0.012292,30,64,0.032298,2.960697,0.041783999999999995,0.0017460000000000002,1
35,118,0.002628,0.24384499999999998,0.00358,1.3000000000000001e-5,29,91,0.0043619999999999996,0.335077,0.005388,2.8999999999999997e-5,31,67,0.00839,0.738999,0.011403,1.3000000000000002e-4,7
66,163,6.42e-4,0.13156400000000001,8.07e-4,1e-6,37,161,0.001135,0.158859,0.001358,2e-6,76,186,5.99e-4,0.141002,7.73e-4,1e-6,0
60,178,5.7e-4,0.12200899999999999,7.099999999999999e-4,1e-6,85,185,4.5099999999999996e-4,0.117467,5.85e-4,0,76,179,5.51e-4,0.126167,7.04e-4,0,0
27,83,0.004744,0.435433,0.0061329999999999996,3.8e-5,32,83,0.007814,0.707372,0.010365000000000001,1.0700000000000001e-4,24,67,0.011703,1.0061579999999999,0.014697,2.1600000000000002e-4,1
55,165,7.73e-4,0.14116800000000002,9.58e-4,1e-6,46,145,0.001032,0.14851099999999998,0.001302,2e-6,62,160,8.22e-4,0.159,0.001029,1e-6,0
82,173,4.980000000000001e-4,0.12099800000000001,6.21e-4,0,95,181,4.7300000000000006e-4,0.135661,5.98e-4,0,54,169,6.2e-4,0.138639,7.4e-4,1e-6,0
34,130,0.001644,0.191695,0.0021,4e-6,24,85,0.005946,0.484091,0.007353,5.4000000000000005e-5,32,103,0.003544,0.392429,0.0045320000000000004,2.1e-5,2
65,172,7.75e-4,0.156226,9.92e-4,1e-6,55,172,8.039999999999999e-4,0.144057,9.76e-4,1e-6,114,194,5.08e-4,0.150371,6.730000000000001e-4,0,0
70,172,6.389999999999999e-4,0.130918,8.02e-4,1e-6,98,185,4.95e-4,0.137952,6.55e-4,0,93,168,5.62e-4,0.140901,7.4e-4,1e-6,0
79,184,4.59e-4,0.10864000000000001,5.85e-4,0,51,163,8.529999999999999e-4,0.13608299999999998,0.001048,1e-6,49,177,9.33e-4,0.15814,0.001143,1e-6,0
114,191,2.8e-4,0.099608,3.3999999999999997e-4,0,71,174,5.24e-4,0.12193299999999999,6.61e-4,0,54,176,8.6e-4,0.147758,0.001041,1e-6,0
26,104,0.003406,0.33787399999999995,0.00424,1.8e-5,32,93,0.0042049999999999995,0.42153100000000004,0.005369,2.8999999999999997e-5,30,97,0.00609,0.52865,0.007594,5.7999999999999994e-5,4
22,107,0.0036060000000000003,0.285132,0.004575,2.1e-5,27,79,0.0050609999999999995,0.406869,0.006252000000000001,3.9e-5,25,82,0.007148000000000001,0.511618,0.009023999999999999,8.1e-5,1
137,198,2.7e-4,0.109304,3.39e-4,0,66,183,6.21e-4,0.135218,7.72e-4,1e-6,59,174,6.72e-4,0.14841,8.269999999999999e-4,1e-6,0
26,114,0.002305,0.200535,0.00286,8e-6,44,117,0.0019,0.264542,0.002442,6e-6,27,97,0.004089,0.331599,0.00513,2.6000000000000002e-5,1
55,154,0.001467,0.187068,0.001964,4e-6,65,163,6.85e-4,0.136099,8.550000000000001e-4,1e-6,125,192,3.31e-4,0.131307,4.17e-4,0,0
20,119,0.0025670000000000003,0.23559499999999997,0.003246,1.1e-5,42,97,0.0032689999999999998,0.33945,0.004247,1.8e-5,27,77,0.006961,0.553057,0.008352,7e-5,6
28,88,0.004233,0.320992,0.005149,2.7000000000000002e-5,27,58,0.007618000000000001,0.5773520000000001,0.00972,9.4e-5,24,68,0.00713,0.641491,0.009034,8.2e-5,3
20,130,0.003182,0.250945,0.0037310000000000004,1.4000000000000001e-5,30,91,0.003657,0.35295,0.004488000000000001,2e-5,20,97,0.004924,0.427496,0.006239,3.9e-5,0
31,132,0.0023350000000000003,0.233636,0.002844,8e-6,31,102,0.004076,0.35977800000000004,0.005016,2.5e-5,28,75,0.006622,0.6313380000000001,0.008163,6.7e-5,8
45,122,0.0014210000000000002,0.196555,0.001952,4e-6,33,87,0.004804,0.443039,0.005956,3.5e-5,39,89,0.0053490000000000005,0.586597,0.006821,4.7e-5,7
41,121,0.001912,0.23975500000000002,0.00235,6e-6,20,69,0.009091,0.563658,0.012131999999999999,1.47e-4,29,112,0.0033439999999999998,0.30385300000000004,0.004275999999999999,1.8e-5,6
67,168,8.26e-4,0.147096,0.0010630000000000001,1e-6,54,170,6.44e-4,0.132919,7.67e-4,1e-6,85,175,5.059999999999999e-4,0.128173,6.519999999999999e-4,0,0
45,120,0.0017670000000000001,0.21584099999999998,0.002273,5e-6,39,117,0.0022760000000000002,0.21998,0.002896,8e-6,22,93,0.005334,0.438346,0.006953,4.8e-5,3
30,91,0.0045579999999999996,0.365728,0.006093,3.7e-5,24,58,0.016281,1.1750909999999999,0.022764,5.18e-4,25,83,0.008573,0.6313949999999999,0.011253,1.26e-4,5
27,106,0.003031,0.298456,0.003892,1.4999999999999999e-5,28,77,0.0041,0.408496,0.004889,2.4e-5,30,70,0.009966,0.9411809999999999,0.013105,1.71e-4,7
29,142,0.00213,0.186851,0.002778,8e-6,17,125,0.003863,0.205046,0.005282,2.8000000000000003e-5,33,132,0.0018579999999999998,0.224079,0.002507,6e-6,0
31,103,0.003288,0.33920500000000003,0.004318,1.9e-5,26,83,0.013019,0.8252079999999999,0.016872,2.8399999999999996e-4,28,81,0.016875,1.448222,0.020949000000000002,4.39e-4,7
28,92,0.004848,0.33625700000000003,0.006653,4.4e-5,30,113,0.0031030000000000003,0.329484,0.004358,1.9e-5,35,98,0.0049960000000000004,0.540862,0.006534000000000001,4.3e-5,3
75,173,5.53e-4,0.13122799999999998,6.940000000000001e-4,0,60,154,7.79e-4,0.14613199999999998,9.84e-4,1e-6,69,159,6.17e-4,0.13568,7.599999999999999e-4,1e-6,0
47,169,7.8e-4,0.139174,9.38e-4,1e-6,59,166,8.1e-4,0.144032,9.89e-4,1e-6,144,197,3.1800000000000003e-4,0.138908,4.04e-4,0,0
38,153,7.18e-4,0.10946099999999999,8.34e-4,1e-6,70,161,6.09e-4,0.129418,7.46e-4,1e-6,52,162,8.300000000000001e-4,0.14033800000000002,0.0010429999999999999,1e-6,0
40,123,0.002337,0.216125,0.003375,1.1e-5,34,72,0.005229,0.455192,0.0068,4.6e-5,20,69,0.010232999999999999,0.761332,0.012759999999999999,1.6299999999999998e-4,5
36,151,0.001326,0.168113,0.0015949999999999998,3e-6,30,94,0.005621,0.528161,0.007203,5.2000000000000004e-5,25,84,0.0066359999999999995,0.6075109999999999,0.008494,7.2e-5,9
57,140,9.56e-4,0.141576,0.001251,2e-6,57,170,8.13e-4,0.143318,9.77e-4,1e-6,45,146,0.001115,0.156872,0.001364,2e-6,0
23,81,0.004511,0.344887,0.005257,2.8000000000000003e-5,27,80,0.007469,0.677666,0.009276000000000001,8.6e-5,36,98,0.0037070000000000002,0.405405,0.005037,2.5e-5,2
31,110,0.003593,0.302962,0.004777,2.3e-5,22,87,0.006138,0.5473060000000001,0.007435,5.5e-5,34,70,0.008453,0.910795,0.010815,1.17e-4,7
150,196,2.3199999999999997e-4,0.10755999999999999,2.97e-4,0,101,192,4.4500000000000003e-4,0.131714,5.7e-4,0,129,193,3.52e-4,0.135258,4.5099999999999996e-4,0,0
77,154,3.91e-4,0.097332,4.8499999999999997e-4,0,69,184,5.89e-4,0.138472,7.32e-4,1e-6,83,168,4.2199999999999996e-4,0.11095,5.549999999999999e-4,0,0
29,120,0.0023469999999999997,0.248317,0.003036,9e-6,30,105,0.004828,0.444463,0.006638,4.4e-5,28,64,0.00646,0.598896,0.00842,7.099999999999999e-5,2
14,61,0.011146,0.61643,0.013969999999999998,1.94e-4,21,75,0.009424,0.787907,0.012023,1.45e-4,34,104,0.005625,0.599255,0.007078,5e-5,8
66,166,6.389999999999999e-4,0.137664,8.1e-4,1e-6,54,164,6.79e-4,0.12498800000000002,8.63e-4,1e-6,51,162,9.16e-4,0.157141,0.001146,1e-6,0
73,109,0.0076760000000000005,0.543093,0.013028,1.6999999999999999e-4,32,86,0.026151,1.9005299999999998,0.046166000000000006,0.002131,50,97,0.015744,0.9885,0.025227,6.360000000000001e-4,5
59,169,7.36e-4,0.14666400000000002,8.960000000000001e-4,1e-6,73,169,5.73e-4,0.121127,7.13e-4,1e-6,78,176,5.610000000000001e-4,0.13911300000000001,7.39e-4,1e-6,0
32,124,0.002752,0.250923,0.003454,1.2e-5,26,112,0.00298,0.292921,0.0038770000000000002,1.4999999999999999e-5,38,114,0.002274,0.234801,0.002849,8e-6,8
28,117,0.0022949999999999997,0.22405799999999998,0.0028469999999999997,8e-6,41,141,0.001257,0.150529,0.00162,3e-6,30,121,0.002207,0.226133,0.002826,8e-6,0
24,64,0.007534000000000001,0.514229,0.009888,9.8e-5,25,66,0.008739,0.666235,0.011207,1.26e-4,24,77,0.009478,0.751362,0.011977,1.43e-4,8
29,130,0.0031100000000000004,0.23136900000000002,0.0043939999999999995,1.9e-5,21,99,0.005252000000000001,0.40624499999999997,0.006966,4.9e-5,37,118,0.0033950000000000004,0.331497,0.00461,2.1e-5,8
74,165,5.22e-4,0.116228,6.78e-4,0,71,159,6.25e-4,0.121921,8.72e-4,1e-6,88,166,4.3799999999999997e-4,0.119524,6.42e-4,0,0
23,50,0.019053999999999998,1.310825,0.02576,6.64e-4,23,94,0.005571,0.497758,0.007631999999999999,5.7999999999999994e-5,24,110,0.005676,0.450743,0.007264,5.3e-5,8
95,178,4.71e-4,0.132609,5.86e-4,0,49,139,7.35e-4,0.140572,8.74e-4,1e-6,100,170,4.8499999999999997e-4,0.132298,6.389999999999999e-4,0,0
25,90,0.004564,0.345317,0.005425,2.8999999999999997e-5,22,93,0.006429000000000001,0.502049,0.008002,6.4e-5,29,95,0.00576,0.521403,0.007083,5e-5,4
26,92,0.005203,0.41751099999999997,0.006795000000000001,4.6e-5,30,80,0.005186,0.397368,0.006745999999999999,4.5e-5,30,107,0.005202,0.475709,0.006605,4.4e-5,8
21,94,0.00472,0.325829,0.006412,4.1e-5,33,88,0.004943,0.48071499999999995,0.006263,3.9e-5,21,65,0.009170000000000001,0.701599,0.011038,1.21e-4,7
29,148,0.001861,0.179259,0.0023989999999999997,6e-6,28,120,0.002497,0.211887,0.003698,1.4000000000000001e-5,32,139,0.002159,0.221933,0.003123,1e-5,0
29,140,0.002264,0.21645599999999998,0.002841,8e-6,27,92,0.003515,0.310625,0.004406,1.9e-5,23,93,0.006928,0.516958,0.009,8.1e-5,5
37,153,0.001394,0.174602,0.001744,3e-6,39,166,0.001013,0.151428,0.001236,2e-6,57,163,7.94e-4,0.146595,9.65e-4,1e-6,0
27,97,0.00412,0.31053800000000004,0.005298,2.8000000000000003e-5,29,100,0.004539,0.40931799999999996,0.005814,3.4e-5,28,59,0.007370999999999999,0.646356,0.00897,8e-5,7
49,161,9.17e-4,0.144744,0.001135,1e-6,79,166,5.480000000000001e-4,0.12416400000000001,6.76e-4,0,73,171,6.320000000000001e-4,0.135549,8.19e-4,1e-6,0
26,79,0.007047,0.572833,0.009281000000000001,8.6e-5,28,81,0.008002,0.8850100000000001,0.009935,9.9e-5,23,71,0.013235,1.0106,0.016314,2.66e-4,1
26,98,0.005429,0.462603,0.0070079999999999995,4.9e-5,40,97,0.0037409999999999995,0.412613,0.0048579999999999995,2.4e-5,31,96,0.0053549999999999995,0.506728,0.006667,4.4e-5,8
78,191,5.610000000000001e-4,0.12925999999999999,6.940000000000001e-4,0,39,141,9.97e-4,0.150304,0.001183,1e-6,93,178,4.89e-4,0.128072,6.17e-4,0,0
31,112,0.0020559999999999997,0.21187899999999998,0.0026609999999999997,7.000000000000001e-6,28,80,0.006065999999999999,0.51552,0.007684000000000001,5.9e-5,22,85,0.004152,0.325261,0.005717,3.3e-5,2
38,116,0.001917,0.223071,0.002484,6e-6,40,128,0.0021030000000000003,0.214871,0.002774,8e-6,21,82,0.006247,0.48475100000000004,0.007876000000000001,6.2e-5,3
29,110,0.003322,0.267703,0.0040100000000000005,1.6e-5,32,69,0.007784,0.667126,0.010329000000000001,1.0700000000000001e-4,22,93,0.006651000000000001,0.424368,0.008838,7.8e-5,5
61,180,7.62e-4,0.15192,9.51e-4,1e-6,62,173,6.66e-4,0.13694,8.410000000000001e-4,1e-6,51,156,0.001057,0.160138,0.00133,2e-6,0
51,160,0.001033,0.150275,0.001349,2e-6,70,171,6.56e-4,0.131469,8.49e-4,1e-6,89,187,4.88e-4,0.140076,6.129999999999999e-4,0,0
26,106,0.0025050000000000003,0.23693899999999998,0.003005,9e-6,29,80,0.00391,0.35286799999999996,0.0048850000000000005,2.4e-5,28,75,0.0053100000000000005,0.474285,0.006716,4.5e-5,2
87,174,5.08e-4,0.126288,6.64e-4,0,49,157,9.42e-4,0.152331,0.001153,1e-6,47,162,0.00093000000000000005,0.155103,0.0010949999999999998,1e-6,0
24,103,0.003632,0.291969,0.0045969999999999995,2.1e-5,25,76,0.005849,0.506497,0.00719,5.2000000000000004e-5,18,79,0.015203,1.2763229999999999,0.018119999999999997,3.28e-4,7
38,123,0.002997,0.281891,0.0039109999999999995,1.4999999999999999e-5,23,78,0.008186,0.6372760000000001,0.010742,1.1499999999999999e-4,20,75,0.011628,0.859823,0.014124000000000001,1.99e-4,9
75,165,8.42e-4,0.165517,0.0011220000000000002,1e-6,56,147,9.49e-4,0.15016400000000002,0.001248,2e-6,58,179,8.4e-4,0.166553,0.001042,1e-6,0
26,80,0.005928,0.513367,0.007333,5.4000000000000005e-5,28,79,0.008067,0.755131,0.009886,9.8e-5,31,101,0.004267,0.41706899999999997,0.005621,3.2e-5,2
72,180,4.99e-4,0.12492,6.09e-4,0,89,168,5.42e-4,0.116468,7.37e-4,1e-6,80,171,4.66e-4,0.12138299999999999,5.9e-4,0,0
29,148,0.001582,0.170254,0.0018969999999999998,4e-6,30,83,0.004796,0.47849899999999995,0.005949,3.5e-5,23,68,0.010234,0.774424,0.012478,1.55e-4,9
64,193,4.7599999999999997e-4,0.116596,5.85e-4,0,112,188,3.84e-4,0.120657,5.009999999999999e-4,0,50,171,6.65e-4,0.139153,7.78e-4,1e-6,0
35,133,0.002591,0.245767,0.0034049999999999996,1.2e-5,21,79,0.005703,0.45593500000000003,0.007195999999999999,5.2000000000000004e-5,21,57,0.012223000000000001,0.922974,0.015338,2.3500000000000002e-4,7
16,79,0.007729000000000001,0.44646499999999995,0.009455,8.9e-5,19,88,0.006581,0.49113999999999997,0.008535,7.3e-5,41,112,0.00405,0.43742,0.005853,3.4e-5,8
83,175,5.58e-4,0.139981,6.92e-4,0,81,179,5.639999999999999e-4,0.137924,6.86e-4,0,68,162,7.160000000000001e-4,0.138977,9.119999999999999e-4,1e-6,0
66,179,7.24e-4,0.13081800000000002,9.24e-4,1e-6,66,182,6.78e-4,0.13568,8.359999999999999e-4,1e-6,67,173,5.67e-4,0.130747,6.96e-4,0,0
27,116,0.0023350000000000003,0.21606399999999998,0.0028079999999999997,8e-6,28,71,0.0062369999999999995,0.661794,0.008283,6.9e-5,33,95,0.005543,0.617937,0.006696,4.5e-5,9
28,117,0.00301,0.28529099999999996,0.003934,1.4999999999999999e-5,30,90,0.004256,0.383623,0.005792,3.4e-5,28,109,0.00428,0.354441,0.005233,2.7000000000000002e-5,6
29,155,0.0014759999999999999,0.16297999999999999,0.001818,3e-6,42,128,0.001485,0.175352,0.0018390000000000001,3e-6,42,161,0.0011560000000000001,0.18068399999999998,0.001467,2e-6,0
116,186,2.83e-4,0.099454,3.63e-4,0,56,169,8.07e-4,0.154889,0.0010019999999999999,1e-6,105,189,4.34e-4,0.138243,5.679999999999999e-4,0,0
19,104,0.0029289999999999997,0.221083,0.003675,1.3000000000000001e-5,31,60,0.006123,0.534949,0.0074930000000000005,5.6000000000000006e-5,32,134,0.002073,0.220861,0.002641,7.000000000000001e-6,5
53,172,7.37e-4,0.132975,9.09e-4,1e-6,64,170,7.05e-4,0.141569,8.91e-4,1e-6,51,163,9.550000000000001e-4,0.149039,0.001222,1e-6,0
24,74,0.009706999999999999,0.732871,0.01291,1.65e-4,32,77,0.005777,0.5804239999999999,0.007114,5.1e-5,26,67,0.016423,1.259658,0.020982,4.4e-4,1
66,182,6.940000000000001e-4,0.13312100000000002,8.939999999999999e-4,1e-6,46,145,0.0010949999999999998,0.16666,0.001359,2e-6,70,173,6.259999999999999e-4,0.141218,7.63e-4,1e-6,0
21,99,0.006278,0.41568299999999997,0.008633,7.5e-5,30,91,0.005386,0.549702,0.006626000000000001,4.4e-5,23,75,0.011162,0.841727,0.014238999999999998,2.0299999999999997e-4,1
159,203,2.2799999999999999e-4,0.109,2.81e-4,0,69,163,6.08e-4,0.128111,7.769999999999999e-4,1e-6,84,187,5.5e-4,0.141737,6.97e-4,0,0
28,100,0.004485,0.398804,0.005509,2.9999999999999997e-5,30,55,0.008416,0.7522260000000001,0.010322,1.06e-4,31,64,0.009123000000000001,0.913522,0.010877,1.18e-4,4
26,99,0.0023870000000000002,0.23498200000000002,0.002913,8e-6,19,119,0.003322,0.27554,0.004252000000000001,1.8e-5,26,85,0.004277,0.398201,0.0054009999999999996,2.8999999999999997e-5,6
80,172,5.21e-4,0.13647,6.63e-4,0,52,149,8.39e-4,0.136524,0.0010810000000000001,1e-6,83,174,5.639999999999999e-4,0.136475,7.160000000000001e-4,1e-6,0
34,115,0.0032630000000000003,0.262806,0.00425,1.8e-5,25,95,0.005011,0.421444,0.006823999999999999,4.7e-5,41,108,0.004383,0.354202,0.005912,3.5e-5,5
22,71,0.007687,0.5935699999999999,0.009488,9e-5,24,99,0.006995,0.555937,0.008842000000000001,7.8e-5,21,75,0.014818000000000001,1.2071969999999999,0.019495,3.7999999999999997e-4,1
41,130,0.0028399999999999996,0.263758,0.004783,2.3e-5,57,122,0.010099,0.6116729999999999,0.019821000000000002,3.93e-4,61,144,0.0035789999999999997,0.31609899999999996,0.0063869999999999994,4.1e-5,6
38,110,0.002095,0.23060300000000003,0.002709,7.000000000000001e-6,25,92,0.003819,0.338404,0.004795000000000001,2.3e-5,28,88,0.00564,0.513058,0.007445,5.5e-5,6
28,88,0.003728,0.32004,0.004727,2.2e-5,27,83,0.00592,0.5005930000000001,0.007287,5.3e-5,27,55,0.011844,1.006673,0.014746,2.17e-4,3
23,112,0.003222,0.281281,0.004014,1.6e-5,28,80,0.006542,0.5808369999999999,0.008038,6.500000000000001e-5,36,72,0.008777,0.898518,0.012121,1.47e-4,7
30,106,0.0032259999999999997,0.29129299999999997,0.004013,1.6e-5,30,80,0.004077,0.368057,0.005328,2.8000000000000003e-5,33,101,0.005448,0.51261,0.007104999999999999,5e-5,8
38,91,0.003125,0.34879,0.003912,1.4999999999999999e-5,23,80,0.00805,0.6768569999999999,0.010261,1.05e-4,29,70,0.006263,0.568058,0.007897,6.2e-5,2
40,143,0.001411,0.186937,0.0016510000000000001,3e-6,39,167,8.28e-4,0.13967000000000002,0.001011,1e-6,38,144,0.001151,0.154514,0.001439,2e-6,0
39,133,0.001588,0.188201,0.00202,4e-6,30,111,0.003198,0.290698,0.004328,1.9e-5,23,80,0.006328,0.509768,0.007823,6.1e-5,5
54,172,7.85e-4,0.15075,9.32e-4,1e-6,40,133,0.00157,0.181173,0.001913,4e-6,47,155,0.001084,0.168607,0.001315,2e-6,0
32,127,0.0016170000000000002,0.197613,0.002059,4e-6,36,75,0.004665,0.424918,0.006032,3.6e-5,27,103,0.0034200000000000003,0.330725,0.0044729999999999995,2e-5,5
47,161,0.001281,0.18446300000000002,0.0016710000000000002,3e-6,56,144,0.001123,0.174558,0.001387,2e-6,38,140,0.0019140000000000001,0.19783599999999998,0.0027760000000000003,8e-6,0
62,162,7.99e-4,0.13775199999999999,0.001025,1e-6,58,177,6.41e-4,0.140812,7.9e-4,1e-6,140,201,3.05e-4,0.124714,3.93e-4,0,0
25,111,0.003423,0.265543,0.004156,1.7e-5,30,93,0.005452,0.51515,0.007647,5.7999999999999994e-5,31,82,0.008367,0.8470340000000001,0.009999,1e-4,7
39,114,0.002294,0.19863599999999998,0.002954,9e-6,47,131,0.0019030000000000002,0.218322,0.002625,7.000000000000001e-6,37,120,0.002166,0.22959000000000002,0.002711,7.000000000000001e-6,1
37,99,0.0025989999999999997,0.261544,0.0033770000000000002,1.1e-5,25,58,0.008723,0.6886399999999999,0.011019,1.21e-4,22,82,0.006776999999999999,0.490288,0.008619,7.4e-5,5
23,93,0.005321,0.352549,0.007981,6.4e-5,21,66,0.007476999999999999,0.523101,0.009285999999999999,8.6e-5,26,98,0.005738,0.43549899999999997,0.007462000000000001,5.6000000000000006e-5,5
25,112,0.002462,0.25094,0.0032630000000000003,1.1e-5,24,98,0.005086,0.430595,0.006626999999999999,4.4e-5,34,82,0.005847,0.525948,0.007956999999999999,6.3e-5,1
54,141,8.51e-4,0.153879,0.001073,1e-6,48,145,0.001052,0.18370999999999998,0.0013289999999999999,2e-6,46,152,0.001045,0.174657,0.001294,2e-6,0
27,95,0.003385,0.268477,0.00436,1.9e-5,23,84,0.007365999999999999,0.585665,0.009126,8.3e-5,24,78,0.008091,0.725986,0.010361,1.0700000000000001e-4,9
55,169,0.001006,0.14387,0.0012929999999999999,2e-6,48,167,9.98e-4,0.140154,0.001266,2e-6,45,164,0.001084,0.15323499999999998,0.001354,2e-6,0
81,181,5.97e-4,0.151073,7.5e-4,1e-6,48,148,0.001236,0.165675,0.001588,3e-6,45,125,0.002245,0.25345,0.003038,9e-6,0
80,172,4.08e-4,0.096981,5.480000000000001e-4,0,44,159,8.72e-4,0.14566800000000002,0.001068,1e-6,118,163,3.96e-4,0.132319,5.200000000000001e-4,0,0
74,159,5.33e-4,0.12725,6.59e-4,0,58,173,6.24e-4,0.126366,7.830000000000001e-4,1e-6,66,168,5.88e-4,0.123422,7.32e-4,1e-6,0
31,108,0.0033380000000000003,0.28842199999999996,0.004657,2.2e-5,19,88,0.004738,0.39555300000000004,0.005789,3.3e-5,25,80,0.006609,0.631961,0.008766,7.7e-5,6
64,161,0.001034,0.173778,0.001275,2e-6,46,169,6.96e-4,0.12705,8.37e-4,1e-6,116,188,3.59e-4,0.12957,4.42e-4,0,0
21,63,0.009578,0.6998840000000001,0.01185,1.4e-4,29,88,0.008008,0.6355109999999999,0.010065000000000001,1.01e-4,26,74,0.012264,0.9739549999999999,0.015372,2.36e-4,1
68,171,5.51e-4,0.115835,7.11e-4,1e-6,94,185,4.980000000000001e-4,0.125131,6.309999999999999e-4,0,60,194,8.28e-4,0.14849299999999999,0.001009,1e-6,0
136,201,2.3199999999999997e-4,0.09830599999999999,2.8700000000000004e-4,0,127,193,3.28e-4,0.117126,4.2300000000000004e-4,0,124,189,3.24e-4,0.12469200000000001,3.94e-4,0,0
23,88,0.00424,0.341492,0.005493,2.9999999999999997e-5,24,82,0.007572,0.638454,0.009967,9.9e-5,22,73,0.009208,0.656403,0.01146,1.31e-4,2
44,216,0.001448,0.252209,0.001691,3e-6,27,100,0.00648,0.66804,0.007893,6.2e-5,27,71,0.017188,1.456302,0.021457,4.5999999999999996e-4,7
66,180,6.389999999999999e-4,0.131925,7.85e-4,1e-6,63,179,6.51e-4,0.134246,8.07e-4,1e-6,64,172,6.38e-4,0.127434,7.89e-4,1e-6,0
27,129,0.002277,0.254332,0.0027760000000000003,8e-6,31,69,0.006314,0.6281100000000001,0.008190000000000001,6.7e-5,20,72,0.008860999999999999,0.631199,0.011087999999999999,1.23e-4,4
33,96,0.004573,0.32513000000000003,0.0066159999999999995,4.4e-5,19,79,0.008868000000000001,0.717611,0.011005,1.21e-4,28,78,0.009956,0.888175,0.012838999999999998,1.65e-4,7
64,174,6.08e-4,0.126737,7.63e-4,1e-6,64,151,7.700000000000001e-4,0.148173,9.73e-4,1e-6,74,177,5.36e-4,0.128456,6.940000000000001e-4,0,0
17,107,0.002677,0.212506,0.0033049999999999998,1.1e-5,30,102,0.0033640000000000002,0.29218299999999997,0.004242,1.8e-5,23,99,0.004189,0.34786100000000003,0.005519,2.9999999999999997e-5,5
62,176,7.24e-4,0.145353,8.91e-4,1e-6,40,125,0.001667,0.201217,0.002167,5e-6,63,164,8.19e-4,0.157565,0.001016,1e-6,0
27,70,0.037401,1.880138,0.05739400000000001,0.0032939999999999996,23,66,0.027531,1.965691,0.044288,0.001961,41,73,0.018755,2.0272650000000003,0.026917,7.24e-4,1
42,172,0.001065,0.136964,0.001325,2e-6,44,169,8.289999999999999e-4,0.140315,0.001011,1e-6,57,155,0.001003,0.169766,0.0013039999999999998,2e-6,0
93,187,3.92e-4,0.120129,4.84e-4,0,72,172,5.45e-4,0.12110499999999999,6.91e-4,0,47,154,0.0010199999999999999,0.170007,0.001284,2e-6,0
74,162,6.15e-4,0.139898,7.66e-4,1e-6,30,141,0.001258,0.15806800000000001,0.0015300000000000001,2e-6,70,183,7.01e-4,0.141203,9e-4,1e-6,0
28,122,0.002758,0.275255,0.003587,1.3000000000000001e-5,24,80,0.004685,0.410567,0.006117,3.7e-5,25,72,0.008499,0.752047,0.011706999999999999,1.36e-4,4
22,64,0.008703,0.5971489999999999,0.011986,1.44e-4,33,70,0.014078,1.372236,0.019275,3.71e-4,27,69,0.032033,2.163204,0.04285,0.001836,9
48,143,9.86e-4,0.14981,0.001245,2e-6,32,92,0.003766,0.32404099999999997,0.00507,2.6000000000000002e-5,24,73,0.005633,0.49076099999999995,0.007084999999999999,5e-5,3
70,189,7.700000000000001e-4,0.154063,9.8e-4,1e-6,54,173,7.13e-4,0.142618,8.900000000000001e-4,1e-6,70,167,7.52e-4,0.16047899999999998,9.390000000000001e-4,1e-6,0
33,112,0.002407,0.243377,0.003006,9e-6,27,86,0.007044,0.598486,0.008922,7.900000000000001e-5,26,88,0.006051,0.5374220000000001,0.007712999999999999,5.9e-5,9
19,92,0.004555,0.33452600000000005,0.00555,3.1e-5,28,85,0.005622,0.557272,0.006956,4.8e-5,25,82,0.010853,0.8869020000000001,0.013537,1.83e-4,7
75,175,7.86e-4,0.152357,0.00103,1e-6,30,99,0.002042,0.21956599999999998,0.002321,5e-6,53,150,0.001051,0.15825699999999998,0.001297,2e-6,0
21,84,0.007986,0.459013,0.012135,1.47e-4,15,54,0.0181,1.101667,0.021532,4.63e-4,29,99,0.004031,0.394917,0.005318,2.8000000000000003e-5,5
57,143,8.75e-4,0.143564,0.001111,1e-6,68,150,7.45e-4,0.153765,9.33e-4,1e-6,60,156,7.67e-4,0.156912,9.47e-4,1e-6,0
37,126,0.002019,0.20655500000000002,0.002677,7.000000000000001e-6,31,82,0.00571,0.505145,0.007455,5.6000000000000006e-5,27,125,0.002538,0.260815,0.0034020000000000005,1.2e-5,2
25,98,0.003396,0.26855,0.004242,1.8e-5,25,119,0.00256,0.24302100000000001,0.003385,1.1e-5,25,83,0.004659,0.42126099999999994,0.005849,3.4e-5,3
93,168,4.3799999999999997e-4,0.109123,5.679999999999999e-4,0,45,154,8.410000000000001e-4,0.139327,9.97e-4,1e-6,103,177,4.11e-4,0.12579400000000002,5.18e-4,0,0
54,170,6.320000000000001e-4,0.112527,8.02e-4,1e-6,56,133,7.23e-4,0.12376300000000001,8.8e-4,1e-6,50,145,7.11e-4,0.131673,8.58e-4,1e-6,0
45,142,0.001271,0.165542,0.001632,3e-6,45,139,0.00244,0.277409,0.003385,1.1e-5,26,79,0.008293,0.602788,0.010642,1.13e-4,8
29,124,0.002979,0.23935,0.00392,1.4999999999999999e-5,31,75,0.006332,0.606779,0.00821,6.7e-5,30,58,0.011274,0.967426,0.01376,1.8899999999999999e-4,9
52,178,8.58e-4,0.137021,0.0010890000000000001,1e-6,52,143,8.939999999999999e-4,0.146783,0.0010890000000000001,1e-6,84,177,5.24e-4,0.131608,6.97e-4,0,0
90,181,4.78e-4,0.128685,6.230000000000001e-4,0,72,152,8.470000000000001e-4,0.14028800000000002,0.001109,1e-6,65,167,8.74e-4,0.16053399999999998,0.001134,1e-6,0
30,80,0.005255,0.531515,0.0069299999999999995,4.8e-5,23,69,0.017891,1.225911,0.025136000000000002,6.320000000000001e-4,27,96,0.006712,0.5296109999999999,0.008867,7.900000000000001e-5,6
26,95,0.003407,0.268723,0.004416,1.9e-5,33,101,0.0034240000000000004,0.370975,0.004609,2.1e-5,32,89,0.004682,0.453293,0.006059,3.7e-5,2
32,83,0.004297,0.44062700000000005,0.005834000000000001,3.4e-5,24,87,0.005232,0.45122299999999993,0.00632,4e-5,26,54,0.010584999999999999,0.896418,0.013891999999999998,1.93e-4,1
17,62,0.010812,0.671512,0.013674,1.8600000000000002e-4,19,68,0.014528999999999999,1.002076,0.018525,3.43e-4,26,121,0.005038,0.502488,0.006393,4.1e-5,8
37,108,0.002241,0.222927,0.002791,8e-6,22,74,0.007381,0.5035229999999999,0.008933,8e-5,33,105,0.004438,0.390162,0.005684000000000001,3.2e-5,2
23,98,0.0037840000000000005,0.288972,0.005392,2.8999999999999997e-5,25,67,0.007022,0.535134,0.008739,7.6e-5,27,69,0.00873,0.683642,0.011781999999999999,1.39e-4,9
102,194,4.7300000000000006e-4,0.142598,6.01e-4,0,99,173,3.73e-4,0.121618,4.6100000000000004e-4,0,41,157,0.001266,0.184057,0.001568,2e-6,0
29,118,0.002127,0.21672399999999997,0.002875,8e-6,14,136,0.0026739999999999997,0.16231800000000002,0.0033130000000000004,1.1e-5,46,137,0.001394,0.190358,0.001807,3e-6,0
78,177,5.31e-4,0.134496,6.74e-4,0,54,152,8.48e-4,0.14115899999999998,0.001094,1e-6,80,171,5.82e-4,0.13885799999999998,7.32e-4,1e-6,0
61,173,7.059999999999999e-4,0.13536900000000002,9.050000000000001e-4,1e-6,53,176,7.99e-4,0.137952,9.710000000000001e-4,1e-6,73,163,5.85e-4,0.118726,7.4e-4,1e-6,0
24,90,0.00419,0.388873,0.0052640000000000004,2.8000000000000003e-5,19,53,0.010314,0.778524,0.013286000000000001,1.76e-4,37,110,0.002881,0.28166199999999997,0.003635,1.3000000000000001e-5,2
25,103,0.003415,0.252683,0.004175,1.7e-5,31,115,0.002286,0.24462899999999999,0.0028190000000000003,8e-6,29,82,0.006184,0.5972850000000001,0.007697,5.9e-5,3
27,116,0.004056000000000001,0.35825799999999997,0.005084,2.6000000000000002e-5,25,56,0.01038,0.732815,0.012551999999999999,1.57e-4,34,98,0.004995,0.410141,0.006514,4.2e-5,6
22,71,0.011474,0.685964,0.016013,2.56e-4,23,84,0.008475,0.653416,0.010625,1.13e-4,21,65,0.020063,1.369529,0.028804000000000003,8.289999999999999e-4,4
28,96,0.004203,0.367178,0.00524,2.7000000000000002e-5,24,70,0.011172,0.933016,0.013837,1.9099999999999998e-4,25,80,0.00867,0.727607,0.010724,1.1499999999999999e-4,9
42,135,0.001865,0.212443,0.00246,6e-6,22,58,0.007834,0.611082,0.0101,1.02e-4,24,113,0.002229,0.23934299999999997,0.002802,8e-6,2
57,169,6.7e-4,0.12308800000000002,8.19e-4,1e-6,63,147,8.2e-4,0.151266,9.98e-4,1e-6,38,140,0.001016,0.146524,0.001182,1e-6,0
34,123,0.002025,0.19203199999999998,0.002466,6e-6,28,104,0.002376,0.229332,0.003145,1e-5,34,135,0.002123,0.18923,0.002838,8e-6,0
90,181,5.66e-4,0.14045,7.21e-4,1e-6,46,148,0.001009,0.148816,0.001218,1e-6,85,187,4.65e-4,0.137447,5.740000000000001e-4,0,0
43,157,0.001235,0.156778,0.0016079999999999998,3e-6,79,175,4.69e-4,0.117347,5.83e-4,0,54,168,8.86e-4,0.155636,0.00115,1e-6,0
99,183,4.940000000000001e-4,0.141344,6.21e-4,0,65,165,6.84e-4,0.13602899999999998,8.349999999999999e-4,1e-6,88,179,3.88e-4,0.115103,4.7599999999999997e-4,0,0
49,181,8.05e-4,0.149587,9.77e-4,1e-6,44,152,9.050000000000001e-4,0.14013399999999998,0.001111,1e-6,65,176,6.86e-4,0.14318399999999998,8.560000000000001e-4,1e-6,0
24,101,0.00297,0.251784,0.0035700000000000003,1.3000000000000001e-5,33,76,0.006620999999999999,0.693092,0.008413,7.099999999999999e-5,25,131,0.0031320000000000002,0.28874,0.004451,2e-5,5
32,115,0.001945,0.216279,0.002436,6e-6,46,144,0.001163,0.186212,0.0014789999999999998,2e-6,30,94,0.003408,0.34026799999999996,0.0043630000000000006,1.9e-5,0
67,173,8.210000000000001e-4,0.139425,0.001126,1e-6,38,139,0.001142,0.16283399999999998,0.001356,2e-6,47,136,0.001206,0.16831,0.001471,2e-6,0
21,99,0.005141,0.42123999999999995,0.0066430000000000005,4.4e-5,33,60,0.010825,1.009629,0.014086000000000001,1.98e-4,28,77,0.01102,0.935743,0.013952,1.95e-4,4
85,180,4.71e-4,0.128521,5.97e-4,0,40,157,8.17e-4,0.142592,9.880000000000002e-4,1e-6,108,169,4.7400000000000003e-4,0.13228199999999998,6.3e-4,0,0
25,71,0.006725,0.483667,0.00861,7.4e-5,24,80,0.005027,0.42911400000000005,0.006462000000000001,4.2e-5,30,84,0.005308,0.524806,0.0065379999999999995,4.3e-5,5
25,114,0.0036090000000000002,0.286167,0.004635,2.1e-5,24,86,0.00463,0.341903,0.006034,3.6e-5,28,71,0.009469,0.696808,0.012231,1.5e-4,0
28,142,0.001825,0.19934300000000002,0.002306,5e-6,28,89,0.005186,0.367037,0.0070810000000000005,5e-5,24,76,0.006548999999999999,0.475245,0.008123,6.6e-5,7
78,166,4.79e-4,0.11916199999999999,6.129999999999999e-4,0,76,178,5.650000000000001e-4,0.129368,7.099999999999999e-4,1e-6,108,196,4.1799999999999997e-4,0.136165,5.33e-4,0,0
88,178,5.32e-4,0.143569,6.69e-4,0,32,85,0.001895,0.20128800000000002,0.002141,5e-6,66,169,7.21e-4,0.143104,8.880000000000001e-4,1e-6,0
122,164,7.509999999999999e-4,0.14056300000000002,0.0014990000000000001,2e-6,80,166,0.001303,0.191873,0.002391,6e-6,53,146,0.001551,0.178369,0.002281,5e-6,8
50,176,8.16e-4,0.14366199999999998,0.001031,1e-6,55,164,8.269999999999999e-4,0.13450299999999998,0.001029,1e-6,52,176,8.029999999999999e-4,0.14407799999999998,0.001004,1e-6,0
62,168,6.05e-4,0.13810999999999998,7.39e-4,1e-6,66,177,6.37e-4,0.12948800000000002,7.93e-4,1e-6,99,180,4.59e-4,0.13283,5.93e-4,0,0
29,92,0.006161,0.35391,0.008839,7.8e-5,26,81,0.008032,0.6562939999999999,0.010279,1.06e-4,29,80,0.0072109999999999995,0.679953,0.009026000000000001,8.1e-5,9
63,176,6.25e-4,0.142583,7.72e-4,1e-6,52,166,9.019999999999999e-4,0.147431,0.001134,1e-6,40,153,0.001105,0.15524200000000002,0.001361,2e-6,0
26,92,0.005141,0.441776,0.006512,4.2e-5,28,59,0.007023000000000001,0.636694,0.008782,7.7e-5,32,77,0.004947,0.468067,0.006181,3.8e-5,1
31,118,0.002967,0.25333,0.003851,1.4999999999999999e-5,21,69,0.010919,0.834501,0.013994999999999999,1.96e-4,20,85,0.0074340000000000005,0.49010299999999996,0.009389,8.8e-5,5
32,112,0.002798,0.247898,0.0034579999999999997,1.2e-5,37,118,0.0024649999999999997,0.265098,0.003152,1e-5,32,97,0.004824,0.498328,0.006161,3.8e-5,3
26,101,0.0032229999999999997,0.25966,0.004046,1.6e-5,42,153,0.001628,0.193573,0.0022440000000000003,5e-6,29,75,0.004601,0.457294,0.005804999999999999,3.4e-5,3
15,88,0.0074129999999999995,0.443905,0.010886,1.18e-4,29,87,0.007599,0.637652,0.011,1.21e-4,35,98,0.004013,0.390928,0.00547,2.9999999999999997e-5,5
45,161,0.00118,0.161991,0.001609,3e-6,30,106,0.00231,0.21768,0.002951,9e-6,36,133,0.0023309999999999997,0.22338000000000002,0.003047,9e-6,2
71,175,6.15e-4,0.126096,7.68e-4,1e-6,72,167,5.780000000000001e-4,0.129609,7.13e-4,1e-6,67,168,7.28e-4,0.156327,9.08e-4,1e-6,0
30,135,0.002449,0.195253,0.003321,1.1e-5,34,134,0.001738,0.194761,0.002149,5e-6,27,112,0.003312,0.29193800000000003,0.004292,1.8e-5,8
25,103,0.003435,0.33762600000000004,0.0048119999999999994,2.3e-5,29,72,0.008372,0.7718619999999999,0.010315000000000001,1.06e-4,29,75,0.010367,0.959571,0.013266,1.76e-4,4
39,160,0.001121,0.143724,0.001379,2e-6,36,126,0.001532,0.186575,0.001837,3e-6,61,158,0.0010949999999999998,0.167414,0.001456,2e-6,0
80,173,5.94e-4,0.126195,8.029999999999999e-4,1e-6,51,140,0.001017,0.16159600000000002,0.001296,2e-6,38,152,0.001185,0.175427,0.001472,2e-6,0
72,178,5.809999999999999e-4,0.125475,7.379999999999999e-4,1e-6,75,176,6.12e-4,0.142056,7.95e-4,1e-6,81,181,5.39e-4,0.13766099999999998,6.85e-4,0,0
71,182,4.7999999999999996e-4,0.119307,5.93e-4,0,72,185,5.35e-4,0.13180799999999998,6.66e-4,0,70,174,6.41e-4,0.143753,8.08e-4,1e-6,0
28,122,0.0028710000000000003,0.22457600000000003,0.0038909999999999995,1.4999999999999999e-5,26,64,0.011483,0.9102290000000001,0.014109,1.99e-4,23,76,0.012793,0.9907450000000001,0.015711000000000003,2.4700000000000004e-4,9
36,115,0.002569,0.24867899999999998,0.003312,1.1e-5,24,92,0.006131,0.45818100000000006,0.0075,5.6000000000000006e-5,23,70,0.01197,0.8536729999999999,0.014533,2.1099999999999998e-4,7
56,147,0.001536,0.179122,0.0021190000000000002,4e-6,68,179,5.38e-4,0.13087100000000002,6.55e-4,0,96,174,4.59e-4,0.131601,5.88e-4,0,0
27,88,0.003507,0.275976,0.004515,2e-5,33,144,0.001366,0.164449,0.0017010000000000003,3e-6,33,106,0.0023539999999999998,0.264391,0.002957,9e-6,0
81,187,5.66e-4,0.136483,6.940000000000001e-4,0,77,167,5.769999999999999e-4,0.130504,7.76e-4,1e-6,69,166,5.97e-4,0.136095,7.37e-4,1e-6,0
42,149,0.001355,0.15698299999999998,0.001832,3e-6,22,89,0.0052369999999999995,0.348731,0.006852,4.7e-5,28,103,0.0046170000000000004,0.375735,0.006108,3.7e-5,9
67,179,8.13e-4,0.148768,0.001023,1e-6,50,177,7.27e-4,0.129636,8.8e-4,1e-6,59,168,8.14e-4,0.154228,0.001013,1e-6,0
17,91,0.005555,0.371753,0.0073939999999999995,5.5e-5,31,60,0.010494,0.8596540000000001,0.01381,1.8999999999999998e-4,20,71,0.008695999999999999,0.6761739999999999,0.011098,1.23e-4,5
29,155,0.001578,0.17624700000000001,0.002153,5e-6,34,95,0.0021219999999999998,0.22393000000000002,0.002503,6e-6,61,183,7.05e-4,0.138716,8.86e-4,1e-6,0
20,90,0.0074129999999999995,0.444171,0.010624,1.13e-4,27,68,0.007939,0.742626,0.009988,1e-4,27,77,0.008741,0.743286,0.010651,1.13e-4,4
89,176,5.93e-4,0.147724,7.52e-4,1e-6,48,165,7.830000000000001e-4,0.12682100000000002,9.95e-4,1e-6,47,154,0.001068,0.156391,0.001399,2e-6,0
30,70,0.004218,0.40787399999999996,0.005325,2.8000000000000003e-5,27,86,0.0048530000000000005,0.43936400000000003,0.006417,4.1e-5,20,72,0.014662,0.9425959999999999,0.019313,3.73e-4,1
59,164,6.97e-4,0.131981,8.52e-4,1e-6,54,174,8e-4,0.140565,9.75e-4,1e-6,82,190,4.1799999999999997e-4,0.131501,5.16e-4,0,0
97,176,2.98e-4,0.094837,3.7e-4,0,71,170,6.43e-4,0.13050899999999999,8.5e-4,1e-6,72,162,5.95e-4,0.132107,7.830000000000001e-4,1e-6,0
82,166,3.79e-4,0.101441,4.7999999999999996e-4,0,32,149,0.001482,0.174504,0.0018670000000000002,3e-6,47,155,0.001326,0.18298,0.0016829999999999998,3e-6,0
24,105,0.004159,0.335478,0.005431,2.8999999999999997e-5,33,74,0.005432,0.553507,0.006938,4.8e-5,18,72,0.012392,0.881167,0.015222999999999999,2.3199999999999997e-4,4
26,66,0.008515,0.6767479999999999,0.010740999999999999,1.1499999999999999e-4,27,73,0.007139,0.6477430000000001,0.008879000000000001,7.900000000000001e-5,33,90,0.008159999999999999,0.722651,0.011678000000000001,1.36e-4,8
58,171,7.58e-4,0.154552,9.32e-4,1e-6,44,139,0.001144,0.161639,0.00135,2e-6,82,181,5.63e-4,0.136227,7.070000000000001e-4,0,0
36,119,0.004531,0.44014200000000003,0.007703,5.9e-5,31,90,0.019194,1.554907,0.030962,9.58e-4,42,110,0.008278,0.790396,0.013257,1.75e-4,0
53,167,7e-4,0.13253,8.63e-4,1e-6,108,176,3.57e-4,0.121592,4.5e-4,0,106,175,3.7400000000000004e-4,0.129833,4.69e-4,0,0
30,103,0.003488,0.329848,0.004716,2.2e-5,28,76,0.00627,0.559686,0.00772,5.9999999999999995e-5,29,83,0.008657999999999999,0.732448,0.010868000000000001,1.18e-4,4
23,104,0.005448,0.40478600000000003,0.007533,5.6999999999999996e-5,21,67,0.012555,0.978232,0.016007,2.56e-4,20,77,0.009941,0.754574,0.01239,1.54e-4,4
73,176,7.84e-4,0.15971,0.0010140000000000001,1e-6,33,163,0.0016460000000000001,0.159997,0.002414,6e-6,52,137,0.002746,0.287472,0.005006,2.5e-5,0
36,108,0.002314,0.26091,0.0029219999999999997,9e-6,19,78,0.007937,0.5706869999999999,0.010683,1.1399999999999999e-4,32,115,0.003557,0.318591,0.004768,2.3e-5,6
88,188,4.92e-4,0.13828800000000002,6.17e-4,0,83,179,5.480000000000001e-4,0.130064,7.19e-4,1e-6,65,164,7.43e-4,0.149676,9.1e-4,1e-6,0
29,117,0.002715,0.264717,0.003503,1.2e-5,37,94,0.00336,0.34494,0.004215,1.8e-5,41,102,0.0043,0.46081000000000005,0.005767,3.3e-5,8
23,76,0.007404000000000001,0.5383760000000001,0.010464,1.09e-4,28,76,0.004888,0.40788,0.006532,4.3e-5,22,78,0.005529,0.42653900000000006,0.00685,4.7e-5,8
92,183,4.6100000000000004e-4,0.12580999999999998,5.72e-4,0,108,190,3.98e-4,0.121635,5.18e-4,0,121,173,3.96e-4,0.136073,5.17e-4,0,0
31,135,0.0015689999999999999,0.17899600000000002,0.00206,4e-6,34,102,0.0028120000000000003,0.280686,0.003442,1.2e-5,25,93,0.004838,0.369593,0.006289,4e-5,5
31,103,0.003014,0.27778400000000003,0.003963,1.6e-5,27,69,0.006555,0.562156,0.007884,6.2e-5,34,92,0.0033399999999999997,0.329965,0.004039,1.6e-5,2
23,68,0.006587999999999999,0.515576,0.009114,8.3e-5,31,108,0.0031829999999999996,0.310747,0.0038439999999999998,1.4999999999999999e-5,30,80,0.005095000000000001,0.512033,0.006732999999999999,4.5e-5,8
26,93,0.0059299999999999995,0.46599300000000005,0.007526000000000001,5.6999999999999996e-5,30,77,0.009278,0.735676,0.012343000000000002,1.52e-4,33,76,0.007461,0.767889,0.009198,8.499999999999999e-5,4
89,185,4.81e-4,0.138406,5.98e-4,0,50,136,0.001102,0.156004,0.001381,2e-6,121,181,3.7200000000000004e-4,0.135523,4.8600000000000005e-4,0,0
30,109,0.003908,0.349527,0.005514,2.9999999999999997e-5,31,88,0.007956999999999999,0.717059,0.010212,1.0400000000000001e-4,23,60,0.018698,1.310497,0.023884,5.67e-4,7
59,157,7.88e-4,0.138519,0.001004,1e-6,48,170,9.400000000000001e-4,0.158031,0.0011330000000000001,1e-6,66,160,6.77e-4,0.13258599999999998,8.59e-4,1e-6,0
35,126,0.001802,0.188102,0.002238,5e-6,39,86,0.003558,0.357094,0.004488000000000001,2e-5,25,58,0.011331,0.897941,0.014353,2.06e-4,3
79,181,5.09e-4,0.112854,6.72e-4,0,85,170,5.610000000000001e-4,0.146028,6.940000000000001e-4,0,72,176,6.51e-4,0.136819,8.320000000000001e-4,1e-6,0
32,119,0.002246,0.231025,0.002885,8e-6,27,91,0.006548,0.542246,0.008576,7.4e-5,31,67,0.008503,0.835865,0.011144,1.24e-4,7
68,168,6.76e-4,0.13860799999999998,8.43e-4,1e-6,59,152,7.9e-4,0.13984000000000002,9.9e-4,1e-6,31,154,0.002156,0.203978,0.0031420000000000003,1e-5,0
67,178,6.519999999999999e-4,0.157424,8.1e-4,1e-6,64,154,6.88e-4,0.14458800000000002,8.349999999999999e-4,1e-6,47,171,8.060000000000001e-4,0.143527,9.75e-4,1e-6,0
36,119,0.002783,0.25409699999999996,0.004142,1.7e-5,36,93,0.024475999999999998,1.465422,0.037935,0.0014320000000000001,43,105,0.011809,1.1920520000000001,0.01892,3.5800000000000003e-4,9
23,99,0.003022,0.248227,0.00385,1.4999999999999999e-5,28,82,0.0055119999999999995,0.551872,0.0068709999999999995,4.7e-5,26,95,0.005973,0.511245,0.007936,6.3e-5,5
65,169,6.46e-4,0.13447699999999999,7.99e-4,1e-6,44,137,0.001465,0.184535,0.00179,3e-6,42,130,0.001348,0.164124,0.0016589999999999999,3e-6,0
22,90,0.004636,0.315042,0.006412999999999999,4.1e-5,31,77,0.005761,0.567137,0.007022,4.9e-5,30,89,0.003704,0.370066,0.004686,2.2e-5,5
69,182,6.41e-4,0.130583,8.14e-4,1e-6,46,142,9.42e-4,0.140429,0.001118,1e-6,71,174,7.53e-4,0.155814,9.449999999999999e-4,1e-6,0
38,167,0.001073,0.15673900000000002,0.001279,2e-6,87,181,5.6e-4,0.13026300000000002,7.35e-4,1e-6,67,164,7.08e-4,0.142375,9.01e-4,1e-6,0
45,156,0.00121,0.160244,0.0015140000000000002,2e-6,25,112,0.002956,0.27764,0.0037070000000000002,1.4000000000000001e-5,29,123,0.003124,0.288076,0.003918,1.4999999999999999e-5,5
31,125,0.002075,0.223259,0.002648,7.000000000000001e-6,29,91,0.004752,0.444121,0.0058909999999999995,3.5e-5,23,76,0.007514,0.63666,0.009163,8.4e-5,9
67,167,0.001091,0.177743,0.001634,3e-6,26,67,0.006579000000000001,0.550892,0.008887,7.900000000000001e-5,47,165,0.0011300000000000001,0.177173,0.001615,3e-6,6
25,119,0.003595,0.24610100000000001,0.005104999999999999,2.6000000000000002e-5,25,85,0.006459,0.608301,0.008158,6.7e-5,22,61,0.010431999999999999,0.734532,0.01254,1.57e-4,9
75,188,4.36e-4,0.10537300000000001,5.45e-4,0,68,169,6.82e-4,0.14674600000000002,8.460000000000001e-4,1e-6,58,170,0.001008,0.17789100000000002,0.001282,2e-6,0
46,156,0.001067,0.145833,0.0013390000000000001,2e-6,58,173,8.11e-4,0.141348,0.001013,1e-6,36,154,0.001035,0.1505,0.001327,2e-6,0
61,165,8.34e-4,0.13611700000000002,0.001076,1e-6,75,184,5.05e-4,0.135375,6.12e-4,0,147,201,3.12e-4,0.13384100000000002,3.96e-4,0,0
31,106,0.003134,0.309167,0.003914,1.4999999999999999e-5,33,79,0.005007,0.495601,0.006354,4e-5,27,73,0.008232,0.7136979999999999,0.010221,1.0400000000000001e-4,1
99,192,3.31e-4,0.10893699999999999,4.14e-4,0,71,154,7.9e-4,0.17637,9.8e-4,1e-6,74,160,7.12e-4,0.15934,9.07e-4,1e-6,0
26,163,0.00143,0.152094,0.0017530000000000002,3e-6,29,134,0.001474,0.169598,0.001894,4e-6,70,150,6.450000000000001e-4,0.131407,8.59e-4,1e-6,0
25,121,0.001979,0.19353099999999998,0.002376,6e-6,31,101,0.0037649999999999997,0.321175,0.005704,3.3e-5,33,96,0.003804,0.344459,0.005035,2.5e-5,2
52,158,9.1e-4,0.144982,0.001132,1e-6,33,140,0.0014119999999999998,0.175293,0.00179,3e-6,23,130,0.0022440000000000003,0.216406,0.002781,8e-6,0
23,80,0.0047079999999999995,0.326766,0.005856,3.4e-5,33,91,0.00415,0.380828,0.005534000000000001,2.9999999999999997e-5,28,98,0.0043479999999999994,0.373096,0.005827000000000001,3.4e-5,7
50,146,0.001439,0.218221,0.001801,3e-6,28,88,0.003588,0.314297,0.004941,2.4e-5,30,121,0.003346,0.28726,0.004504,2e-5,6
64,168,8.1e-4,0.14919300000000002,0.001038,1e-6,43,182,0.0010539999999999998,0.143984,0.001269,2e-6,68,168,9.710000000000001e-4,0.162874,0.001333,2e-6,0
33,139,0.001558,0.185334,0.001795,3e-6,31,156,0.001353,0.16461099999999998,0.0016300000000000002,3e-6,68,165,9.630000000000001e-4,0.163705,0.001235,2e-6,0
28,112,0.0023309999999999997,0.2067,0.0030039999999999997,9e-6,37,135,0.001857,0.191712,0.002355,6e-6,25,85,0.004495,0.36754899999999996,0.005457,2.9999999999999997e-5,3
60,180,6.54e-4,0.132536,8.07e-4,1e-6,63,165,7.14e-4,0.139458,8.84e-4,1e-6,50,180,8.92e-4,0.149668,0.001132,1e-6,0
150,191,2.42e-4,0.10760399999999999,3.01e-4,0,75,185,5.12e-4,0.124902,6.43e-4,0,140,192,2.73e-4,0.118529,3.43e-4,0,0
68,171,6.47e-4,0.147301,7.93e-4,1e-6,66,180,6.87e-4,0.12626199999999999,8.8e-4,1e-6,92,180,4.82e-4,0.13354000000000002,6.309999999999999e-4,0,0
51,132,0.001837,0.221034,0.00267,7.000000000000001e-6,24,90,0.006289,0.471441,0.008023,6.4e-5,37,108,0.002856,0.26361,0.003684,1.4000000000000001e-5,2
24,79,0.007168000000000001,0.51035,0.010612,1.13e-4,34,104,0.004104,0.39816,0.005221,2.7000000000000002e-5,25,86,0.008806999999999999,0.654305,0.011284,1.27e-4,4
22,79,0.003839,0.33005100000000004,0.0049310000000000005,2.4e-5,33,113,0.0024460000000000003,0.253319,0.003297,1.1e-5,28,92,0.0039109999999999995,0.364606,0.005343,2.8999999999999997e-5,1
26,135,0.001936,0.185841,0.002303,5e-6,27,89,0.003038,0.28823200000000004,0.0036079999999999997,1.3000000000000001e-5,34,115,0.002575,0.303596,0.0034189999999999997,1.2e-5,3
46,114,0.009006,0.628837,0.015858,2.51e-4,37,99,0.006862999999999999,0.509776,0.010205,1.0400000000000001e-4,49,114,0.003922,0.42486599999999997,0.006082,3.7e-5,0
97,166,2.97e-4,0.09245,3.7999999999999997e-4,0,72,154,6.62e-4,0.135631,8.43e-4,1e-6,89,158,4.91e-4,0.122776,6.230000000000001e-4,0,0
25,111,0.003261,0.257321,0.003967,1.6e-5,27,89,0.0032630000000000003,0.289786,0.004272,1.8e-5,42,115,0.0026609999999999997,0.30614,0.0034939999999999997,1.2e-5,2
26,57,0.006019,0.5055649999999999,0.007462000000000001,5.6000000000000006e-5,29,80,0.003635,0.385098,0.004612,2.1e-5,32,67,0.0054399999999999995,0.525673,0.006889,4.7e-5,1
37,159,7.15e-4,0.119316,8.820000000000001e-4,1e-6,60,164,7.81e-4,0.152316,9.720000000000001e-4,1e-6,36,98,0.002082,0.22630100000000003,0.002462,6e-6,0
20,72,0.008869,0.5357390000000001,0.011108,1.23e-4,42,84,0.004538,0.451855,0.005912,3.5e-5,44,102,0.004251,0.47961899999999996,0.0054859999999999996,2.9999999999999997e-5,8
65,166,5.85e-4,0.124101,7.379999999999999e-4,1e-6,87,185,3.7799999999999997e-4,0.108724,4.71e-4,0,63,157,7.09e-4,0.13181500000000002,8.67e-4,1e-6,0
17,51,0.012749,0.672072,0.015338,2.34e-4,29,79,0.007781999999999999,0.566883,0.011487,1.32e-4,27,90,0.007213,0.616425,0.009048,8.2e-5,8
36,120,0.00278,0.247811,0.003749,1.4000000000000001e-5,27,82,0.005587,0.458096,0.006906,4.8e-5,20,79,0.008123,0.6340819999999999,0.010576,1.1200000000000001e-4,9
34,107,0.002597,0.263955,0.003324,1.1e-5,33,105,0.003048,0.303093,0.00375,1.4000000000000001e-5,31,80,0.0045130000000000005,0.47859799999999997,0.005535,3.1e-5,3
52,165,7.66e-4,0.137535,9.400000000000001e-4,1e-6,41,145,0.0011359999999999999,0.168715,0.001376,2e-6,60,164,7.5e-4,0.144419,9.47e-4,1e-6,0
87,185,5.32e-4,0.133338,6.81e-4,0,54,159,7.98e-4,0.123981,0.00103,1e-6,37,144,0.0016820000000000001,0.193215,0.002153,5e-6,0
21,57,0.008705,0.558244,0.010798,1.1599999999999999e-4,40,95,0.002777,0.34829099999999996,0.0039,1.4999999999999999e-5,33,83,0.006296,0.598146,0.007739,5.9999999999999995e-5,8
98,184,4.82e-4,0.137533,6.11e-4,0,55,170,7.37e-4,0.141121,8.8e-4,1e-6,75,171,8.59e-4,0.15750799999999998,0.001119,1e-6,0
30,85,0.004176,0.310288,0.005642,3.2e-5,33,80,0.003922,0.42489499999999997,0.005163,2.7000000000000002e-5,34,114,0.002915,0.283102,0.003747,1.4000000000000001e-5,2
39,127,0.001889,0.203805,0.0025210000000000002,6e-6,45,151,8.97e-4,0.151902,0.001141,1e-6,24,100,0.0036590000000000004,0.287473,0.004502,2e-5,6
38,95,0.002861,0.285916,0.004174000000000001,1.7e-5,24,91,0.004338,0.356746,0.00526,2.8000000000000003e-5,26,72,0.009594,0.772783,0.01204,1.44e-4,3
37,124,0.002283,0.23789899999999997,0.0029980000000000002,9e-6,28,73,0.006934999999999999,0.633812,0.008643000000000001,7.5e-5,23,81,0.0081,0.688606,0.010133,1.03e-4,9
55,177,5.79e-4,0.117683,7.14e-4,1e-6,59,173,9.87e-4,0.150752,0.001231,2e-6,36,134,0.001441,0.19021500000000002,0.001756,3e-6,0
60,174,6.07e-4,0.128405,7.32e-4,1e-6,36,146,0.001166,0.164106,0.0014140000000000001,2e-6,53,160,9.26e-4,0.162966,0.001207,1e-6,0
55,182,8.49e-4,0.152148,0.001094,1e-6,81,186,5.04e-4,0.132803,6.46e-4,0,102,189,3.98e-4,0.128628,5.059999999999999e-4,0,0
143,187,2.67e-4,0.113722,3.28e-4,0,114,192,3.37e-4,0.119152,4.2300000000000004e-4,0,115,194,3.1600000000000004e-4,0.11972100000000001,3.92e-4,0,0
92,174,4.4699999999999997e-4,0.106002,6.309999999999999e-4,0,41,143,0.001294,0.17243,0.001719,3e-6,34,108,0.00221,0.217304,0.0032159999999999997,1e-5,0
72,179,5.5e-4,0.13788499999999998,6.69e-4,0,138,190,2.77e-4,0.117388,3.5099999999999997e-4,0,68,175,5.97e-4,0.134772,7.41e-4,1e-6,0
45,155,0.001027,0.14587,0.001295,2e-6,54,156,7.76e-4,0.133213,9.84e-4,1e-6,49,143,0.001185,0.16050999999999999,0.001478,2e-6,0
31,114,0.002321,0.209193,0.002944,9e-6,35,92,0.0037549999999999997,0.39569,0.0049310000000000005,2.4e-5,26,93,0.004611,0.420705,0.005696,3.2e-5,3
28,52,0.006647,0.5610970000000001,0.008427,7.099999999999999e-5,33,84,0.007959,0.781887,0.010145999999999999,1.03e-4,23,77,0.01927,1.354131,0.023756,5.63e-4,7
41,141,0.001663,0.191797,0.002195,5e-6,19,80,0.005442,0.416774,0.0067469999999999995,4.5e-5,28,92,0.004837,0.42558900000000005,0.0058969999999999995,3.5e-5,9
54,169,7e-4,0.133687,8.74e-4,1e-6,85,173,5.59e-4,0.1227,7.36e-4,1e-6,62,161,7.85e-4,0.143179,9.9e-4,1e-6,0
53,162,8.810000000000001e-4,0.142502,0.001124,1e-6,70,161,6.11e-4,0.144967,7.830000000000001e-4,1e-6,93,186,4.3099999999999996e-4,0.12778,5.51e-4,0,0
62,185,6.24e-4,0.13911500000000002,7.52e-4,1e-6,59,167,7.58e-4,0.11985499999999999,0.001035,1e-6,33,162,0.001704,0.180749,0.0021420000000000002,5e-6,0
24,81,0.005463,0.44175200000000003,0.006711,4.5e-5,23,79,0.0048579999999999995,0.427547,0.00603,3.6e-5,25,115,0.005737,0.5445439999999999,0.007287,5.3e-5,8
60,161,9.53e-4,0.161132,0.001271,2e-6,39,153,0.001289,0.171967,0.001603,3e-6,113,181,3.65e-4,0.126399,4.59e-4,0,0
43,150,0.001149,0.156647,0.0014269999999999999,2e-6,49,105,0.002171,0.24564299999999997,0.002804,8e-6,41,134,0.0015609999999999999,0.202938,0.002,4e-6,0
83,181,5.38e-4,0.123597,7.3e-4,1e-6,121,180,6.95e-4,0.136985,0.001267,2e-6,72,179,7.54e-4,0.159485,0.001029,1e-6,0
31,101,0.004109000000000001,0.327752,0.00534,2.8999999999999997e-5,24,96,0.0048259999999999996,0.383509,0.005947999999999999,3.5e-5,21,77,0.014049,1.1528260000000001,0.017122,2.93e-4,7
41,148,9.98e-4,0.15871300000000002,0.001251,2e-6,111,185,3.7400000000000004e-4,0.124947,4.5700000000000005e-4,0,32,154,0.001172,0.162619,0.001448,2e-6,0
25,82,0.0067090000000000006,0.42435500000000004,0.010078,1.02e-4,22,65,0.010570999999999999,0.799377,0.013,1.68e-4,25,101,0.0040950000000000005,0.382882,0.005403,2.8999999999999997e-5,5
32,87,0.004312,0.398617,0.005895,3.5e-5,21,61,0.009470000000000001,0.607759,0.011973000000000001,1.43e-4,33,78,0.005984000000000001,0.554668,0.007887,6.2e-5,5
25,80,0.004422,0.39116100000000004,0.005476,2.9999999999999997e-5,29,65,0.009678,0.8821319999999999,0.011899,1.4199999999999998e-4,30,76,0.012212,1.113038,0.016265,2.64e-4,7
19,78,0.004658,0.320269,0.005538,3.1e-5,27,94,0.004372,0.33521999999999996,0.005676,3.2e-5,34,110,0.003379,0.31822399999999995,0.00449,2e-5,8
52,171,8.84e-4,0.144264,0.001168,1e-6,35,81,0.004204,0.406013,0.005446,2.9999999999999997e-5,31,139,0.0019149999999999998,0.21685900000000002,0.002375,6e-6,5
16,86,0.007905,0.44732799999999995,0.009588,9.2e-5,25,66,0.011113,0.929449,0.014113999999999998,1.99e-4,23,74,0.011877,1.000946,0.014754,2.18e-4,4
59,126,0.0054210000000000005,0.406244,0.011768,1.38e-4,37,122,0.012103000000000001,1.100652,0.021998,4.84e-4,49,111,0.014896000000000001,1.26296,0.026458999999999996,6.96e-4,9
22,90,0.006000999999999999,0.395714,0.007352,5.4000000000000005e-5,26,78,0.0060539999999999995,0.520277,0.00843,7.099999999999999e-5,36,89,0.00507,0.516202,0.0067480000000000005,4.6e-5,8
66,165,7.440000000000001e-4,0.151564,9.429999999999999e-4,1e-6,48,144,9.960000000000001e-4,0.147983,0.001186,1e-6,55,149,8.349999999999999e-4,0.13660899999999998,0.001093,1e-6,0
18,125,0.002538,0.20944200000000002,0.00299,9e-6,30,135,0.0019850000000000002,0.21429,0.002594,7.000000000000001e-6,24,114,0.003936,0.352078,0.004814,2.3e-5,6
79,175,5.24e-4,0.13751300000000002,6.46e-4,0,81,170,5.72e-4,0.12593800000000002,7.33e-4,1e-6,56,163,7.059999999999999e-4,0.144812,8.72e-4,1e-6,0
26,81,0.00472,0.39426700000000003,0.006043,3.7e-5,34,64,0.008231,0.800427,0.010269,1.05e-4,27,67,0.012234,1.096349,0.015279,2.33e-4,7
34,112,0.0034939999999999997,0.325714,0.004538,2.1e-5,32,63,0.008437,0.75143,0.010347,1.0700000000000001e-4,38,80,0.008218000000000001,0.8673049999999999,0.010654,1.13e-4,4
96,184,3.25e-4,0.102281,4.12e-4,0,36,145,0.001467,0.177558,0.001841,3e-6,36,128,0.0016920000000000001,0.19984100000000002,0.002027,4e-6,0
23,63,0.006966,0.5115569999999999,0.009268,8.6e-5,26,99,0.005241,0.483778,0.006683,4.5e-5,27,95,0.006171,0.51785,0.008253,6.8e-5,8
27,113,0.003213,0.297249,0.0040950000000000005,1.7e-5,28,80,0.007386,0.646696,0.008958,8e-5,28,67,0.010702,1.027578,0.013593000000000001,1.85e-4,7
20,73,0.008447,0.569625,0.010523999999999999,1.1e-4,26,81,0.005749,0.462092,0.008029999999999999,6.4e-5,23,77,0.00701,0.589275,0.008416,7.099999999999999e-5,8
24,107,0.003083,0.264387,0.004072999999999999,1.7e-5,30,107,0.002431,0.239754,0.00321,1e-5,21,80,0.004523,0.329541,0.0057350000000000005,3.3e-5,2
22,123,0.0035310000000000003,0.278852,0.0046159999999999994,2.1e-5,24,69,0.008878,0.7084520000000001,0.010849,1.18e-4,22,83,0.0065840000000000004,0.538708,0.008272,6.8e-5,4
43,151,0.00106,0.15644,0.001325,2e-6,30,143,0.0016769999999999999,0.17052,0.002264,5e-6,46,144,0.0016239999999999998,0.195638,0.00202,4e-6,0
26,104,0.0031620000000000003,0.271295,0.004267,1.8e-5,24,118,0.002893,0.267131,0.0036659999999999996,1.3000000000000001e-5,31,61,0.006268999999999999,0.586018,0.007804000000000001,6.1e-5,3
39,118,0.002682,0.246935,0.003759,1.4000000000000001e-5,36,95,0.0035039999999999997,0.334656,0.004471,2e-5,32,64,0.008766,0.8199420000000001,0.011090000000000001,1.23e-4,3
18,86,0.005456,0.410603,0.0065450000000000005,4.3e-5,25,81,0.015025,1.203928,0.019169,3.65e-4,27,61,0.019066,1.729214,0.024100999999999997,5.809999999999999e-4,7
71,165,5.43e-4,0.129675,6.730000000000001e-4,0,57,138,9.07e-4,0.14460699999999999,0.001111,1e-6,75,172,5.85e-4,0.136809,7.66e-4,1e-6,0
27,102,0.002916,0.253163,0.0037170000000000003,1.4000000000000001e-5,24,92,0.00426,0.335754,0.0055439999999999994,3.1e-5,39,122,0.00259,0.274084,0.003251,1.1e-5,8
42,136,0.001955,0.222094,0.002507,6e-6,22,81,0.005032,0.395977,0.006194,3.8e-5,26,54,0.009784000000000001,0.775777,0.011801,1.39e-4,3
47,167,6.63e-4,0.136647,8.07e-4,1e-6,40,138,0.001217,0.15756199999999998,0.0014609999999999998,2e-6,96,182,3.71e-4,0.12312200000000001,4.5099999999999996e-4,0,0
42,151,0.0014210000000000002,0.164996,0.001864,3e-6,31,116,0.0019219999999999999,0.189075,0.00237,6e-6,37,123,0.0017670000000000001,0.197178,0.002275,5e-6,0
110,183,4.4400000000000006e-4,0.141929,5.87e-4,0,30,150,0.0013039999999999998,0.172028,0.001498,2e-6,50,171,0.001088,0.171488,0.00134,2e-6,0
29,117,0.002558,0.223872,0.003271,1.1e-5,35,137,0.001791,0.19938,0.0022489999999999997,5e-6,27,120,0.0028280000000000002,0.27546,0.0035310000000000003,1.2e-5,2
46,158,9.41e-4,0.14514100000000002,0.0011560000000000001,1e-6,70,171,6.14e-4,0.14106300000000002,7.480000000000001e-4,1e-6,74,160,7.35e-4,0.144499,9.539999999999999e-4,1e-6,0
71,180,5.02e-4,0.12838,6.21e-4,0,80,165,5.75e-4,0.126271,7.610000000000001e-4,1e-6,80,173,4.58e-4,0.127925,5.82e-4,0,0
30,123,0.0021850000000000003,0.22106199999999998,0.0028989999999999997,8e-6,27,107,0.002721,0.272717,0.003393,1.2e-5,31,101,0.00458,0.43406999999999996,0.005886,3.5e-5,8
29,114,0.002677,0.25254,0.003503,1.2e-5,32,115,0.002206,0.24298699999999998,0.0029,8e-6,24,109,0.004876,0.40108,0.006540000000000001,4.3e-5,8
39,120,0.002046,0.21041300000000002,0.002627,7.000000000000001e-6,40,137,0.001529,0.19866199999999998,0.0019140000000000001,4e-6,33,66,0.007049,0.6384340000000001,0.008893,7.900000000000001e-5,3
55,169,7.26e-4,0.12303900000000001,8.95e-4,1e-6,64,170,7.01e-4,0.129999,9.07e-4,1e-6,77,181,4.75e-4,0.123426,5.8e-4,0,0
30,82,0.004113,0.365473,0.005393,2.8999999999999997e-5,37,85,0.006071,0.568341,0.007675,5.9e-5,25,92,0.008306000000000001,0.671775,0.010467,1.09e-4,9
71,166,5.8e-4,0.132326,7.55e-4,1e-6,38,172,0.001019,0.131654,0.001231,2e-6,58,169,0.001034,0.164863,0.001307,2e-6,0
94,175,5e-4,0.128326,6.64e-4,0,98,190,3.81e-4,0.119795,4.65e-4,0,36,127,0.001317,0.168759,0.001542,2e-6,0
37,127,0.0018620000000000002,0.23024699999999998,0.002305,5e-6,28,79,0.007729000000000001,0.728644,0.009987000000000001,1e-4,26,82,0.0067659999999999994,0.531906,0.008753,7.7e-5,2
24,101,0.003958,0.287554,0.0050869999999999995,2.6000000000000002e-5,19,88,0.006977,0.561947,0.008485,7.2e-5,30,73,0.010323,1.002138,0.013161,1.73e-4,7
66,179,4.01e-4,0.093562,4.9e-4,0,53,170,7.070000000000001e-4,0.12423900000000002,8.72e-4,1e-6,83,160,4.6100000000000004e-4,0.121183,5.91e-4,0,0
74,178,7.23e-4,0.15249100000000002,9.130000000000001e-4,1e-6,47,149,0.0010630000000000001,0.161198,0.001314,2e-6,41,154,7.86e-4,0.14413800000000002,9.33e-4,1e-6,0
32,127,0.001358,0.162329,0.001585,3e-6,67,173,6.79e-4,0.137871,8.25e-4,1e-6,65,160,7.42e-4,0.141631,9.38e-4,1e-6,0
100,185,3.57e-4,0.105813,4.62e-4,0,76,183,5.91e-4,0.13514,7.31e-4,1e-6,80,182,5.36e-4,0.13245,6.450000000000001e-4,0,0
20,109,0.004927,0.319313,0.006697,4.5e-5,49,104,0.003029,0.35291500000000003,0.004081,1.7e-5,24,80,0.008235,0.5646899999999999,0.010754000000000001,1.1599999999999999e-4,6
27,99,0.003421,0.304615,0.004379,1.9e-5,26,114,0.0035590000000000005,0.303365,0.005352,2.8999999999999997e-5,37,107,0.00337,0.355231,0.0043219999999999995,1.9e-5,6
32,85,0.005432,0.511566,0.007333,5.4000000000000005e-5,26,59,0.012617,1.037248,0.0153,2.34e-4,30,81,0.010298,0.8860030000000001,0.01316,1.73e-4,4
159,207,2.3500000000000002e-4,0.11521600000000001,2.96e-4,0,75,178,5.59e-4,0.13106800000000002,7.26e-4,1e-6,76,166,6.53e-4,0.142977,8.449999999999999e-4,1e-6,0
83,173,6.77e-4,0.164649,8.31e-4,1e-6,68,184,7.030000000000001e-4,0.14102699999999999,8.789999999999999e-4,1e-6,127,190,3.56e-4,0.126129,4.6100000000000004e-4,0,0
27,104,0.004176,0.332861,0.005801,3.4e-5,25,59,0.009309999999999999,0.704136,0.01138,1.29e-4,31,76,0.005556,0.532175,0.007951,6.3e-5,5
30,89,0.004296,0.390753,0.005425999999999999,2.8999999999999997e-5,33,110,0.0035960000000000002,0.30368,0.004566,2.1e-5,33,92,0.003144,0.339378,0.003973,1.6e-5,1
26,75,0.004302,0.35013299999999997,0.005299,2.8000000000000003e-5,36,125,0.0024519999999999998,0.231302,0.003229,1e-5,36,112,0.004232,0.364898,0.005666,3.2e-5,8
118,184,2.8900000000000003e-4,0.099495,3.59e-4,0,68,171,7.27e-4,0.14931,9.019999999999999e-4,1e-6,84,176,6.06e-4,0.140246,8.08e-4,1e-6,0
38,140,0.0014759999999999999,0.19084500000000001,0.001923,4e-6,23,107,0.0028309999999999997,0.288067,0.0034240000000000004,1.2e-5,29,116,0.003152,0.28109,0.0038909999999999995,1.4999999999999999e-5,6
25,131,0.0020670000000000003,0.197209,0.0025280000000000003,6e-6,29,96,0.004013,0.33532399999999996,0.005314,2.8000000000000003e-5,29,79,0.007525,0.667431,0.009988,9.9e-5,3
13,59,0.013294,0.710503,0.015961000000000003,2.54e-4,21,52,0.021866,1.529564,0.031467,9.9e-4,20,68,0.008071,0.523928,0.010358,1.0700000000000001e-4,0
51,168,9.01e-4,0.138113,0.0011099999999999999,1e-6,59,165,7.480000000000001e-4,0.14988800000000002,9.21e-4,1e-6,54,172,7.26e-4,0.152246,9.04e-4,1e-6,0
58,149,0.0014759999999999999,0.183024,0.002282,5e-6,60,150,9.720000000000001e-4,0.143559,0.001431,2e-6,47,162,8.49e-4,0.13830699999999999,0.0010630000000000001,1e-6,0
29,115,0.00247,0.250219,0.003032,9e-6,27,91,0.006017,0.465808,0.0076359999999999996,5.7999999999999994e-5,26,82,0.004613,0.420254,0.00558,3.1e-5,2
42,165,0.001085,0.154218,0.0013189999999999999,2e-6,59,165,6.98e-4,0.139577,8.69e-4,1e-6,58,165,7.84e-4,0.149675,0.001001,1e-6,0
134,198,2.4900000000000004e-4,0.102701,3.1600000000000004e-4,0,92,178,5.41e-4,0.13034500000000002,7.35e-4,1e-6,101,189,3.8700000000000003e-4,0.126565,4.99e-4,0,0
70,178,5.96e-4,0.14063599999999998,7.36e-4,1e-6,42,154,9.400000000000001e-4,0.138327,0.001129,1e-6,53,148,8.8e-4,0.14937,0.0010789999999999999,1e-6,0
35,106,0.0024739999999999996,0.233706,0.0030440000000000003,9e-6,47,123,0.0017230000000000001,0.219525,0.002205,5e-6,17,94,0.004538,0.364573,0.005514,2.9999999999999997e-5,3
34,111,0.002578,0.252757,0.0039020000000000005,1.4999999999999999e-5,26,85,0.00442,0.312299,0.00602,3.6e-5,35,101,0.004079999999999999,0.33457600000000004,0.006626999999999999,4.4e-5,3
23,139,0.0017929999999999999,0.17618399999999998,0.002179,5e-6,97,172,5.25e-4,0.138207,6.55e-4,0,56,168,8.31e-4,0.145267,0.0010199999999999999,1e-6,0
82,179,6.63e-4,0.145454,8.63e-4,1e-6,52,169,7.76e-4,0.144232,9.689999999999999e-4,1e-6,43,179,9.62e-4,0.16004100000000002,0.001218,1e-6,0
21,103,0.0036479999999999998,0.261819,0.004487,2e-5,28,75,0.008646,0.72426,0.011219,1.26e-4,37,102,0.004771,0.467,0.006251,3.9e-5,9
33,109,0.002224,0.239957,0.002726,7.000000000000001e-6,27,97,0.003744,0.328759,0.004642,2.1e-5,29,97,0.004424,0.423418,0.005533,3.1e-5,6
33,108,0.003826,0.29743600000000003,0.005311,2.8000000000000003e-5,36,89,0.0037689999999999998,0.331421,0.004598,2.1e-5,29,60,0.009444,0.678429,0.014059,1.98e-4,5
26,78,0.0041649999999999994,0.331692,0.005376,2.8999999999999997e-5,27,86,0.005857,0.452431,0.007745999999999999,5.9999999999999995e-5,27,82,0.005836,0.481912,0.007090000000000001,5e-5,1
78,173,5.43e-4,0.129913,6.81e-4,0,51,164,7.769999999999999e-4,0.134445,9.64e-4,1e-6,76,179,5.480000000000001e-4,0.136848,6.75e-4,0,0
77,175,5.5e-4,0.129208,6.929999999999999e-4,0,105,187,3.62e-4,0.122491,4.4699999999999997e-4,0,137,189,3.46e-4,0.138768,4.42e-4,0,0
65,164,5.809999999999999e-4,0.12108499999999998,7.33e-4,1e-6,62,159,8.13e-4,0.14569400000000002,0.001027,1e-6,41,153,0.001072,0.154692,0.0013289999999999999,2e-6,0
25,118,0.0037070000000000002,0.282885,0.004743,2.2e-5,32,76,0.007576,0.735269,0.009366,8.8e-5,26,71,0.014838999999999998,1.219761,0.019174,3.67e-4,7
76,172,5.35e-4,0.132421,6.71e-4,0,71,174,6.17e-4,0.124173,8.2e-4,1e-6,118,178,3.9e-4,0.138461,5.12e-4,0,0
65,171,8.2e-4,0.15592999999999999,0.001005,1e-6,59,173,6.799999999999999e-4,0.138329,8.560000000000001e-4,1e-6,110,185,4.5e-4,0.138014,5.85e-4,0,0
27,90,0.004479,0.355157,0.0055119999999999995,2.9999999999999997e-5,25,57,0.013516,1.036309,0.018157,3.28e-4,23,65,0.015599000000000002,1.097442,0.021103,4.4500000000000003e-4,0
32,121,0.002194,0.23743699999999998,0.002815,8e-6,26,69,0.008225,0.699932,0.010712000000000001,1.1499999999999999e-4,27,70,0.007114,0.6757029999999999,0.008834,7.8e-5,9
34,78,0.031376999999999995,1.815343,0.053207000000000004,0.0028309999999999997,42,85,0.02113,1.542611,0.03347,0.00112,44,83,0.017463,1.449449,0.025428,6.46e-4,0
40,132,0.003168,0.246615,0.004606,2.1e-5,37,95,0.003886,0.41140699999999997,0.005334,2.8000000000000003e-5,29,79,0.006665000000000001,0.655313,0.008376999999999999,7e-5,9
30,117,0.00259,0.231229,0.0032359999999999997,1e-5,39,153,0.001398,0.167708,0.001836,3e-6,41,147,0.0019010000000000001,0.22932800000000003,0.002449,6e-6,8
25,88,0.005186,0.408958,0.007453,5.6000000000000006e-5,28,91,0.006086,0.597653,0.007437,5.5e-5,22,68,0.016373,1.226975,0.02071,4.26e-4,7
83,172,5.93e-4,0.139139,7.35e-4,1e-6,91,190,4.2800000000000005e-4,0.125612,5.22e-4,0,83,192,4.65e-4,0.129407,5.62e-4,0,0
95,181,4.34e-4,0.130206,5.39e-4,0,77,175,4.91e-4,0.12471700000000001,6.02e-4,0,94,177,4.99e-4,0.14035699999999998,6.34e-4,0,0
78,177,5.23e-4,0.11570599999999999,6.62e-4,0,79,174,6.129999999999999e-4,0.132026,7.85e-4,1e-6,89,173,5.13e-4,0.13037,6.61e-4,0,0
60,158,6.96e-4,0.140388,8.880000000000001e-4,1e-6,45,148,0.001001,0.154656,0.001198,1e-6,54,164,8.759999999999999e-4,0.15516,0.001134,1e-6,0
104,188,4.3499999999999995e-4,0.139352,5.43e-4,0,36,126,0.0014960000000000002,0.18288800000000002,0.001819,3e-6,47,165,8.66e-4,0.157074,0.00107,1e-6,0
29,88,0.0047799999999999995,0.377919,0.005947999999999999,3.5e-5,38,85,0.00566,0.613833,0.00773,5.9999999999999995e-5,35,68,0.010739,1.043491,0.013642,1.8600000000000002e-4,7
59,168,7.2e-4,0.14518699999999998,8.97e-4,1e-6,47,159,7.469999999999999e-4,0.132734,9.08e-4,1e-6,121,185,3.5499999999999996e-4,0.135962,4.52e-4,0,0
75,181,5.56e-4,0.134769,7.12e-4,1e-6,58,159,6.259999999999999e-4,0.124543,7.88e-4,1e-6,88,162,5.769999999999999e-4,0.12355999999999999,7.66e-4,1e-6,0
98,187,4.33e-4,0.123807,5.650000000000001e-4,0,75,175,5.51e-4,0.14844100000000002,6.85e-4,0,102,185,4.6399999999999995e-4,0.135569,5.97e-4,0,0
54,152,0.001072,0.17939000000000002,0.0013310000000000002,2e-6,27,104,0.003635,0.319767,0.004966,2.5e-5,37,155,0.001418,0.180632,0.001748,3e-6,6
85,179,4.7400000000000003e-4,0.127116,5.98e-4,0,42,151,9.33e-4,0.151863,0.001152,1e-6,114,173,3.9e-4,0.130367,4.7999999999999996e-4,0,0
20,73,0.008856000000000001,0.609683,0.011833,1.4e-4,19,70,0.009424,0.681886,0.011341,1.29e-4,29,82,0.011189,1.072984,0.014041999999999999,1.96e-4,1
141,199,3.03e-4,0.119189,3.98e-4,0,68,181,5.43e-4,0.11031800000000001,6.72e-4,0,96,180,4.04e-4,0.1279,5.03e-4,0,0
36,97,0.002583,0.30307199999999995,0.003207,1e-5,20,84,0.006559000000000001,0.559276,0.007941,6.3e-5,19,95,0.006449,0.49587600000000004,0.007731999999999999,5.9999999999999995e-5,2
89,183,4.6699999999999997e-4,0.12946300000000002,5.85e-4,0,77,167,6.81e-4,0.145038,8.710000000000001e-4,1e-6,86,161,7.5e-4,0.164854,0.001016,1e-6,0
43,158,0.001077,0.143457,0.001303,2e-6,68,156,6.77e-4,0.14110599999999998,8.39e-4,1e-6,90,189,4.84e-4,0.135327,6.28e-4,0,0
24,106,0.0028870000000000002,0.262049,0.0036420000000000003,1.3000000000000001e-5,32,89,0.0035310000000000003,0.324371,0.004574,2.1e-5,28,67,0.005654,0.473713,0.007156,5.1e-5,2
57,126,0.002796,0.255899,0.005323,2.8000000000000003e-5,34,100,0.014263999999999999,1.0376809999999999,0.027176,7.379999999999999e-4,38,123,0.003222,0.331509,0.005495,2.9999999999999997e-5,2
45,153,0.001057,0.15129,0.001282,2e-6,29,154,0.001375,0.156905,0.001622,3e-6,25,111,0.0035380000000000003,0.29249200000000003,0.004424,2e-5,3
27,121,0.0035859999999999998,0.250257,0.004609,2.1e-5,30,83,0.004814,0.45741899999999996,0.006224,3.9e-5,26,83,0.006397,0.535991,0.008106,6.6e-5,5
31,108,0.003478,0.305166,0.004449,2e-5,27,82,0.006770999999999999,0.61632,0.008813,7.8e-5,21,68,0.014173,1.014586,0.017728999999999998,3.14e-4,7
80,177,5.809999999999999e-4,0.142565,7.36e-4,1e-6,87,182,4.7699999999999994e-4,0.130367,5.84e-4,0,80,174,4.65e-4,0.13206400000000001,5.740000000000001e-4,0,0
41,149,9.570000000000001e-4,0.146006,0.001143,1e-6,34,136,0.001301,0.166276,0.0015,2e-6,56,176,8.880000000000001e-4,0.154922,0.001105,1e-6,0
53,172,5.04e-4,0.104398,6.01e-4,0,76,165,5.67e-4,0.126028,7.25e-4,1e-6,67,147,6.929999999999999e-4,0.133246,8.849999999999999e-4,1e-6,0
51,147,0.001127,0.145183,0.001501,2e-6,38,87,0.003932,0.446871,0.005156,2.7000000000000002e-5,22,98,0.0033350000000000003,0.287435,0.003988,1.6e-5,0
43,159,0.001044,0.146071,0.001335,2e-6,87,180,4.62e-4,0.131675,5.67e-4,0,41,163,0.001347,0.165212,0.0017100000000000001,3e-6,0
34,110,0.0024100000000000002,0.22224699999999997,0.003034,9e-6,26,133,0.002381,0.22174499999999997,0.003123,1e-5,38,118,0.002947,0.302667,0.004288,1.8e-5,2
80,186,5.66e-4,0.142328,7.2e-4,1e-6,33,137,0.001394,0.187669,0.0016690000000000001,3e-6,69,179,6.04e-4,0.13831500000000002,7.42e-4,1e-6,0
42,164,0.001029,0.137511,0.001438,2e-6,24,125,0.002574,0.232879,0.0033539999999999998,1.1e-5,29,107,0.00411,0.371785,0.00535,2.8999999999999997e-5,5
32,73,0.0047079999999999995,0.421328,0.006183,3.8e-5,28,61,0.007708,0.646649,0.010404,1.0800000000000001e-4,28,59,0.009762999999999999,0.8136399999999999,0.012042,1.45e-4,5
25,82,0.007065000000000001,0.538387,0.00953,9.1e-5,26,77,0.005963,0.526736,0.007266,5.3e-5,20,75,0.009419,0.641664,0.011424,1.31e-4,1
28,101,0.0030989999999999998,0.250576,0.003825,1.4999999999999999e-5,34,104,0.003471,0.321254,0.004738,2.2e-5,28,90,0.0063219999999999995,0.437438,0.008633,7.4e-5,0
26,98,0.0035909999999999996,0.294367,0.004849,2.3e-5,28,95,0.0035960000000000002,0.31990999999999997,0.004514,2e-5,24,66,0.007422,0.54984,0.009006,8.1e-5,3
50,153,9.25e-4,0.130582,0.0012050000000000001,1e-6,76,159,5.15e-4,0.108395,6.62e-4,0,39,125,0.001217,0.15825799999999998,0.001434,2e-6,0
84,182,6.18e-4,0.145616,8.01e-4,1e-6,50,155,9.539999999999999e-4,0.152063,0.00131,2e-6,37,129,0.001498,0.176612,0.0019030000000000002,4e-6,0
30,122,0.0018440000000000002,0.208344,0.0022530000000000002,5e-6,23,122,0.0025960000000000002,0.249034,0.003275,1.1e-5,19,87,0.009126,0.581838,0.011068999999999999,1.22e-4,3
74,170,5.809999999999999e-4,0.131883,7.11e-4,1e-6,102,183,4.7000000000000004e-4,0.12933599999999998,6.11e-4,0,58,159,7.559999999999999e-4,0.133022,9.27e-4,1e-6,0
41,145,0.00151,0.18124500000000002,0.001827,3e-6,57,158,7.17e-4,0.132854,9.01e-4,1e-6,49,165,8.43e-4,0.151475,0.001058,1e-6,0
35,125,0.002888,0.26254,0.004194,1.8e-5,22,87,0.006000999999999999,0.42463100000000004,0.007675,5.9e-5,22,77,0.008727,0.73212,0.011467,1.31e-4,3
69,179,6.29e-4,0.132622,7.78e-4,1e-6,62,165,6.01e-4,0.12670399999999998,7.43e-4,1e-6,60,160,8.029999999999999e-4,0.13733099999999998,0.001007,1e-6,0
56,138,0.001353,0.20050199999999999,0.001743,3e-6,27,89,0.004545,0.375871,0.005992,3.6e-5,25,115,0.0033810000000000003,0.31451399999999996,0.004213000000000001,1.8e-5,6
22,131,0.00267,0.24562199999999998,0.003252,1.1e-5,34,108,0.0029920000000000003,0.303601,0.0036780000000000003,1.4000000000000001e-5,37,107,0.00282,0.30661,0.0036490000000000003,1.3000000000000001e-5,6
71,157,6.190000000000001e-4,0.11353699999999999,8.24e-4,1e-6,76,161,5.3e-4,0.124872,6.65e-4,0,82,168,4.96e-4,0.123254,6.230000000000001e-4,0,0
30,123,0.002876,0.266148,0.0036090000000000002,1.3000000000000001e-5,33,95,0.003825,0.382275,0.005141,2.6000000000000002e-5,23,85,0.012391,0.79774,0.01489,2.21e-4,7
58,163,5.610000000000001e-4,0.11175,7.25e-4,1e-6,64,157,7.18e-4,0.134852,9.140000000000001e-4,1e-6,57,151,6.01e-4,0.117157,7.29e-4,1e-6,0
34,106,0.004074,0.33708899999999997,0.005695,3.2e-5,24,97,0.007790999999999999,0.7099,0.009746,9.499999999999999e-5,33,57,0.012562,1.225035,0.015981,2.5499999999999996e-4,4
25,99,0.0031320000000000002,0.28492199999999995,0.0041659999999999996,1.7e-5,28,55,0.007914000000000001,0.759655,0.009815,9.6e-5,22,104,0.0035210000000000003,0.318753,0.004602,2.1e-5,2
37,151,0.001509,0.176674,0.0019100000000000002,4e-6,31,104,0.002616,0.246061,0.0036869999999999997,1.4000000000000001e-5,36,136,0.0019329999999999998,0.191969,0.002597,7.000000000000001e-6,2
33,126,0.001925,0.211238,0.002418,6e-6,47,148,0.0010550000000000002,0.1795,0.001356,2e-6,31,120,0.002462,0.24529099999999998,0.0032450000000000005,1.1e-5,0
32,127,0.002747,0.227927,0.003761,1.4000000000000001e-5,23,61,0.009276000000000001,0.67293,0.011574,1.34e-4,24,72,0.007872,0.599092,0.0099,9.8e-5,9
49,113,0.001115,0.144847,0.00143,2e-6,46,148,0.0014789999999999998,0.171468,0.0019079999999999998,4e-6,44,151,8.439999999999999e-4,0.138224,0.0010630000000000001,1e-6,0
48,181,7.76e-4,0.15570799999999999,9.460000000000001e-4,1e-6,75,171,6.56e-4,0.135327,8.4e-4,1e-6,45,150,0.001158,0.17108299999999999,0.001437,2e-6,0
52,174,0.001059,0.148221,0.0013160000000000001,2e-6,60,177,6.34e-4,0.131185,8.060000000000001e-4,1e-6,76,175,7.14e-4,0.146541,9.21e-4,1e-6,0
15,86,0.007653,0.485831,0.009341,8.7e-5,35,66,0.007469,0.79897,0.00943,8.9e-5,28,59,0.022366,1.819882,0.028532,8.13e-4,7
24,71,0.007940000000000001,0.520336,0.010101,1.02e-4,16,55,0.022425,1.3420889999999999,0.026320999999999997,6.929999999999999e-4,20,64,0.019372,1.264831,0.025341,6.389999999999999e-4,9
28,96,0.004397,0.434345,0.005599,3.1e-5,32,86,0.006788,0.6459090000000001,0.008425,7.099999999999999e-5,35,66,0.0077540000000000005,0.8503930000000001,0.009302,8.7e-5,4
82,181,5.36e-4,0.12879100000000002,6.77e-4,0,52,161,7.4e-4,0.13536099999999998,9.27e-4,1e-6,86,181,5.31e-4,0.14594200000000002,6.92e-4,0,0
53,155,8.49e-4,0.132449,0.0010789999999999999,1e-6,39,148,0.001333,0.165338,0.001661,3e-6,36,144,0.0011710000000000002,0.149296,0.001431,2e-6,0
30,76,0.006033,0.481538,0.008326,6.9e-5,34,70,0.005152,0.5975060000000001,0.006412,4.1e-5,18,70,0.015380000000000001,1.048649,0.019458,3.7799999999999997e-4,1
63,166,6.61e-4,0.134079,8.269999999999999e-4,1e-6,50,166,9.01e-4,0.146357,0.001109,1e-6,44,147,0.001121,0.160572,0.001348,2e-6,0
49,168,0.001099,0.170681,0.001317,2e-6,51,180,8.33e-4,0.14486300000000002,9.92e-4,1e-6,51,152,0.001074,0.179964,0.001327,2e-6,0
52,158,0.0014990000000000001,0.184929,0.00198,4e-6,67,163,6.889999999999999e-4,0.137531,8.6e-4,1e-6,131,192,3.31e-4,0.135223,4.1600000000000003e-4,0,0
17,63,0.009487,0.647645,0.011734999999999999,1.38e-4,22,67,0.021386000000000002,1.47328,0.026101,6.79e-4,26,79,0.005435,0.48037299999999994,0.006445,4.2e-5,2
62,188,6.59e-4,0.140556,8.150000000000001e-4,1e-6,111,182,3.64e-4,0.11864000000000001,4.63e-4,0,78,181,4.4e-4,0.126538,5.36e-4,0,0
27,100,0.00316,0.266615,0.003914,1.4999999999999999e-5,30,85,0.0051340000000000005,0.48535100000000003,0.006489,4.2e-5,26,84,0.00509,0.461291,0.006313,4e-5,2
72,166,7.89e-4,0.149366,0.001029,1e-6,110,185,4.1900000000000005e-4,0.125139,5.51e-4,0,102,192,4.3499999999999995e-4,0.133047,5.54e-4,0,0
75,179,6.04e-4,0.13664500000000002,7.55e-4,1e-6,62,159,6.95e-4,0.13181099999999998,8.69e-4,1e-6,121,180,4.0199999999999996e-4,0.136466,5.099999999999999e-4,0,0
20,78,0.00594,0.458822,0.007626999999999999,5.7999999999999994e-5,23,74,0.008701,0.752996,0.010756,1.1599999999999999e-4,31,69,0.008201,0.718629,0.010824,1.17e-4,8
24,59,0.007537,0.565817,0.010028,1e-4,26,99,0.00485,0.44573900000000005,0.006007,3.6e-5,27,95,0.005225,0.475972,0.006755,4.6e-5,8
62,170,8.19e-4,0.13178199999999998,0.001027,1e-6,102,175,3.65e-4,0.11176099999999999,4.68e-4,0,47,169,8.289999999999999e-4,0.143242,0.001,1e-6,0
74,172,5.39e-4,0.131977,6.6e-4,0,84,182,5.070000000000001e-4,0.126228,6.41e-4,0,78,166,6.309999999999999e-4,0.14038499999999998,8.14e-4,1e-6,0
17,70,0.0065379999999999995,0.410397,0.008369,7e-5,22,84,0.005964,0.480455,0.007626000000000001,5.7999999999999994e-5,17,80,0.011997,0.9489120000000001,0.014443000000000001,2.0800000000000001e-4,1
27,111,0.0032689999999999998,0.26454099999999997,0.003974,1.6e-5,34,68,0.006417,0.5765939999999999,0.008256,6.8e-5,22,96,0.005613,0.36323099999999997,0.007418000000000001,5.5e-5,5
65,172,6.1e-4,0.13911099999999998,7.39e-4,1e-6,40,147,0.001082,0.152332,0.0013310000000000002,2e-6,29,126,0.002203,0.22423,0.0028350000000000003,8e-6,0
88,175,5.31e-4,0.140355,6.81e-4,0,67,168,6.309999999999999e-4,0.128965,7.73e-4,1e-6,103,172,3.75e-4,0.124793,4.69e-4,0,0
